0
346
348
349
348
344
341
342
344
344
343
340
338
338
339
338
336
334
334
334
334
334
333
335
335
333
333
334
335
335
335
334
335
337
337
336
335
335
338
336
335
335
337
338
338
336
336
339
342
343
341
340
340
342
342
340
340
340
341
342
343
343
342
341
341
340
338
339
340
337
334
333
335
336
336
335
335
335
337
337
336
335
336
337
338
336
338
342
350
359
368
376
386
395
397
387
369
350
332
317
307
302
304
310
316
320
325
329
332
335
335
334
334
335
335
335
335
335
336
339
341
340
340
342
341
340
340
341
341
341
340
340
339
340
340
341
343
344
346
345
344
344
344
345
345
344
345
347
350
350
349
348
348
347
347
344
342
342
343
342
343
343
340
339
338
337
337
336
334
334
334
334
334
335
335
334
333
334
336
336
334
335
335
336
336
335
335
336
337
337
335
335
336
336
336
335
334
338
341
343
342
341
341
342
343
342
341
340
341
341
342
344
344
341
341
339
340
340
340
338
335
334
336
337
337
335
334
336
337
338
336
335
336
337
337
337
338
341
348
357
366
375
385
394
398
392
376
357
338
321
309
304
304
309
314
320
324
328
332
335
335
334
335
335
335
334
334
335
336
338
340
340
340
341
341
340
339
340
341
341
340
339
339
340
340
339
342
345
346
345
344
344
344
345
346
345
345
348
350
350
348
347
347
349
349
345
342
343
344
345
343
342
340
339
339
338
337
336
334
334
333
333
335
336
336
334
335
336
337
336
335
334
335
336
337
336
336
336
336
336
336
336
336
336
336
336
336
337
341
342
341
340
340
341
341
341
340
341
341
341
341
344
344
342
342
341
339
341
341
339
336
335
336
337
338
337
337
337
337
337
336
335
336
338
337
336
336
339
345
354
364
374
383
393
398
394
380
362
343
326
310
303
301
306
313
319
323
328
331
334
335
335
335
336
335
334
333
335
336
339
341
341
340
340
341
340
339
340
341
341
341
339
339
339
340
340
341
345
345
345
344
344
344
345
345
344
344
347
350
350
348
347
347
348
348
346
343
344
345
343
342
342
341
339
338
336
336
335
334
333
332
333
333
334
334
333
333
334
335
336
335
335
335
336
337
336
335
335
337
336
336
335
336
336
336
336
335
335
339
341
341
340
340
340
340
339
339
339
340
340
340
342
343
343
341
339
339
340
341
339
336
334
334
336
336
335
335
337
338
338
337
336
336
337
336
336
336
339
343
351
360
370
380
390
397
395
383
366
347
329
314
305
302
306
311
316
322
327
331
333
335
335
335
336
337
336
335
335
336
337
339
340
342
342
341
340
339
340
341
341
340
339
341
341
341
340
340
345
346
346
344
344
345
346
346
345
344
347
351
351
350
349
348
349
349
347
345
342
342
342
341
341
340
339
337
335
336
336
334
332
332
332
333
334
335
333
332
332
333
334
334
333
334
335
336
335
335
335
336
336
335
335
335
336
336
336
335
336
338
341
341
340
340
341
341
340
340
340
341
340
340
342
344
343
341
340
340
340
340
339
336
334
335
337
337
336
336
336
337
338
336
335
336
339
337
337
336
339
343
349
358
367
377
388
397
397
388
372
353
333
316
306
303
305
311
316
322
327
332
334
336
335
336
337
336
335
335
336
337
335
338
341
341
342
341
340
339
339
341
340
339
339
339
341
341
340
340
344
346
346
344
343
344
345
346
344
344
347
350
350
348
347
347
349
349
346
342
341
342
342
342
342
343
340
338
336
336
337
337
335
333
333
334
336
335
334
334
335
335
335
335
335
335
335
335
335
335
336
337
337
335
335
335
337
337
336
336
336
338
340
341
340
340
341
340
339
340
340
341
342
341
342
344
344
341
340
340
342
343
342
337
335
335
337
337
336
335
336
337
337
336
336
337
338
338
336
335
338
343
348
355
365
376
385
394
396
390
377
358
337
321
309
304
304
308
314
320
325
330
332
334
335
336
336
336
335
334
335
337
336
338
340
342
342
342
341
340
342
343
342
341
341
341
341
341
341
341
344
347
347
346
344
346
346
346
345
344
345
349
351
350
349
350
350
349
348
346
343
343
343
344
344
343
341
339
339
338
339
337
335
333
332
334
335
334
334
333
334
336
337
335
333
334
336
337
336
335
336
337
336
336
336
335
336
336
334
334
336
336
340
339
339
340
340
341
340
339
340
341
341
339
340
344
344
341
339
338
339
341
340
336
334
334
336
336
335
336
336
337
337
336
336
337
336
337
336
334
336
339
345
353
363
373
382
390
395
391
380
363
341
322
309
304
303
306
311
317
324
330
332
333
335
335
336
336
335
334
334
335
334
336
340
342
341
340
339
339
340
340
340
339
340
339
341
342
341
340
343
345
346
346
345
345
345
344
343
342
344
348
349
349
348
349
349
349
348
345
343
344
344
343
342
342
341
338
336
337
339
337
334
331
331
333
335
335
333
333
335
335
335
334
333
334
335
336
335
335
335
336
336
335
334
335
335
334
334
334
335
337
340
340
341
342
342
341
340
340
342
342
341
340
340
344
345
344
341
340
340
341
341
339
336
336
336
336
336
336
337
337
337
336
335
336
337
338
337
336
337
341
344
350
360
370
380
389
396
395
385
368
347
327
314
307
303
303
309
315
322
328
332
333
334
336
336
336
336
335
336
336
336
336
338
341
341
340
339
339
340
341
340
339
339
340
341
341
340
340
342
347
348
346
344
345
346
346
345
344
345
349
350
350
349
349
349
349
348
347
346
345
344
342
342
343
343
339
337
337
339
339
336
333
333
334
335
335
334
334
335
335
335
334
333
335
336
336
335
334
335
336
336
336
336
336
337
337
335
335
335
337
339
341
341
341
340
339
339
339
340
341
341
340
340
342
344
342
340
339
340
341
341
339
336
335
335
336
336
336
336
337
336
335
336
337
337
336
335
335
336
340
343
348
357
368
378
387
394
395
387
372
352
331
315
306
303
303
308
314
322
328
331
331
334
336
337
336
334
335
335
337
336
335
338
341
342
340
339
339
340
341
341
340
340
341
342
341
340
341
342
346
346
345
344
344
344
344
344
343
345
347
349
349
349
348
348
349
348
348
345
344
342
342
343
344
343
340
337
336
337
338
335
333
332
333
335
336
335
334
334
334
334
333
332
333
334
335
334
334
334
336
336
334
334
335
336
336
336
336
336
336
338
339
340
341
341
341
341
340
341
341
340
340
341
343
345
343
340
340
341
341
342
340
338
336
336
336
336
336
336
336
335
335
335
336
336
336
335
335
336
338
341
346
354
365
376
384
392
395
391
378
358
336
318
308
304
302
306
313
320
326
331
331
334
336
337
335
334
334
336
337
336
335
338
341
343
341
340
339
341
342
342
340
340
340
341
341
340
340
341
343
345
346
344
344
344
344
343
344
344
345
347
348
348
348
347
347
347
347
345
343
342
341
342
343
343
341
337
336
337
338
336
333
333
334
334
334
333
333
335
335
335
333
333
335
336
335
334
333
335
335
335
334
334
335
336
336
336
336
337
337
338
341
342
342
341
341
340
341
342
343
342
341
340
342
346
344
342
340
340
341
341
340
338
335
336
336
335
335
336
337
336
335
336
337
337
336
336
337
339
339
340
343
352
364
375
383
391
396
394
381
362
340
323
310
304
301
305
313
319
324
328
331
333
336
336
335
334
335
336
336
336
335
337
340
342
342
340
339
340
341
341
341
341
340
340
340
339
339
340
343
344
345
345
346
346
344
342
342
343
344
347
348
348
348
348
347
346
346
346
344
342
341
341
342
343
340
336
336
337
338
335
332
331
333
334
333
332
332
333
335
336
334
333
333
333
333
333
334
335
336
336
335
335
335
336
335
335
336
336
337
336
338
341
343
342
341
339
340
341
342
341
341
341
341
345
345
342
341
341
341
339
339
339
337
335
334
334
335
335
336
336
335
335
336
336
337
336
336
337
337
340
343
351
361
371
379
387
395
396
386
368
348
327
313
306
303
303
309
317
323
328
330
333
336
336
335
335
335
335
336
335
334
336
340
341
340
339
339
341
342
341
340
340
341
342
341
340
340
341
342
345
346
346
346
345
344
343
344
345
345
347
349
349
350
350
350
349
348
347
346
344
343
343
343
344
343
339
338
338
339
338
335
333
334
334
334
334
334
335
335
335
334
335
336
335
335
334
334
335
336
334
334
334
335
335
334
334
336
336
336
335
337
340
341
341
339
339
340
341
341
340
339
339
340
342
344
341
340
340
341
340
339
338
336
335
333
333
334
335
336
336
335
335
336
338
337
335
336
338
338
339
341
348
358
369
378
386
394
397
389
372
351
331
317
308
303
303
308
316
323
327
330
333
336
337
336
335
335
337
336
335
334
336
340
342
341
340
340
342
342
341
339
339
339
340
340
339
340
341
342
343
344
344
345
345
344
344
344
344
344
346
348
350
349
349
347
346
346
347
345
343
341
341
343
344
342
339
337
337
338
338
334
333
334
335
334
334
335
335
335
334
334
335
336
336
335
334
335
337
337
336
334
334
335
336
336
335
335
336
336
335
336
339
341
342
341
340
340
341
341
341
340
340
341
343
344
341
340
341
342
341
340
340
338
336
335
335
336
337
336
335
335
336
338
337
336
335
335
337
338
338
340
346
356
368
377
385
393
398
392
377
357
338
322
309
303
302
307
315
321
324
328
330
334
336
335
334
334
335
337
336
335
335
338
341
341
339
339
340
340
339
339
340
342
343
340
338
339
340
341
343
344
344
345
345
345
344
344
345
345
344
346
348
349
349
348
348
350
350
347
343
342
342
344
345
344
341
338
339
339
339
337
334
333
334
333
332
333
334
334
334
334
334
335
335
334
334
334
335
335
334
334
335
336
336
335
334
335
337
337
335
335
339
342
342
340
339
339
339
341
341
341
341
343
342
343
343
341
340
341
340
340
340
339
336
334
334
336
337
338
336
335
336
337
337
336
336
336
338
337
337
338
343
353
363
372
380
390
396
394
380
360
339
323
310
304
301
305
312
319
324
328
330
333
335
335
334
334
335
335
334
333
334
338
341
341
341
340
341
340
340
339
340
341
340
339
338
338
340
341
341
343
345
346
346
345
344
345
345
345
345
346
349
350
350
347
347
348
349
347
343
341
342
343
343
343
340
338
338
338
338
336
334
333
333
332
332
333
334
334
333
334
334
336
334
333
333
335
336
335
335
333
333
335
337
335
335
335
336
337
336
337
339
342
342
341
340
340
341
340
339
339
339
340
340
343
343
341
340
341
340
339
340
339
336
334
334
334
335
336
336
336
336
337
337
336
335
336
338
338
337
339
343
352
362
371
380
389
397
396
384
366
346
328
314
305
302
304
311
318
322
327
330
333
336
336
336
336
336
336
335
335
336
338
341
342
341
341
341
341
340
340
341
342
342
340
339
339
341
341
341
344
345
346
345
343
343
343
345
345
344
346
348
350
349
348
346
347
348
346
342
340
340
342
342
341
339
337
337
337
336
335
332
332
332
332
332
333
333
334
333
333
333
335
335
333
333
334
335
335
334
334
335
336
336
335
333
334
336
337
335
334
337
340
342
341
339
340
341
341
340
339
339
340
340
342
344
343
342
341
340
340
341
340
337
334
334
334
337
337
338
338
337
337
338
336
336
336
337
337
336
338
343
350
359
368
378
387
397
398
389
371
352
334
319
309
303
303
309
316
321
326
330
333
335
335
335
336
338
337
336
335
336
337
340
341
341
341
341
340
340
340
342
342
341
340
340
340
341
341
340
344
346
347
346
344
344
344
345
344
343
344
348
350
349
347
347
348
348
349
345
343
342
344
344
344
342
340
339
338
339
337
336
335
334
334
334
334
336
336
335
334
336
337
337
336
336
336
337
337
335
335
335
336
336
335
334
335
337
335
333
334
338
341
342
340
339
340
342
342
340
339
340
341
341
341
343
342
341
339
338
339
341
340
337
334
334
335
336
335
334
333
335
336
336
336
334
336
337
337
337
338
341
347
355
365
375
385
394
398
391
376
358
339
321
308
302
303
308
314
320
325
330
332
334
335
335
335
336
336
335
336
335
337
339
340
341
342
342
342
341
340
341
342
342
342
341
341
342
341
341
343
346
348
348
346
345
345
346
345
344
345
349
351
350
348
347
349
350
350
346
342
343
344
345
343
343
341
339
338
338
339
337
334
334
334
334
335
336
335
333
334
335
336
336
335
334
334
336
336
335
335
335
336
336
335
335
337
339
338
337
336
338
341
343
342
341
341
342
341
340
339
340
342
341
340
344
344
342
341
340
341
342
342
338
335
334
335
337
336
335
335
336
337
337
336
335
336
336
336
335
336
340
345
352
361
371
382
391
396
393
381
363
342
324
310
304
302
306
313
317
323
329
332
332
333
334
335
336
336
335
335
336
337
338
340
341
341
342
341
340
340
340
341
340
339
338
340
340
341
339
341
345
347
346
344
343
344
345
345
345
345
348
350
349
348
347
347
349
347
344
341
341
341
342
341
341
340
339
337
336
336
336
335
333
332
331
333
333
333
334
334
335
336
335
335
335
336
336
335
335
335
336
337
338
335
334
336
337
337
335
335
337
341
342
343
340
340
341
340
339
340
340
341
341
341
343
344
342
339
338
339
341
341
339
335
333
335
337
337
336
335
336
337
337
336
336
338
340
339
338
339
342
346
353
362
372
382
391
397
395
384
367
348
329
314
305
303
306
311
317
323
329
333
334
335
336
336
337
337
335
334
335
336
338
341
344
344
343
341
341
341
343
343
343
341
341
342
343
343
341
342
345
347
348
345
345
346
347
347
345
345
348
351
351
349
349
350
352
351
347
344
344
345
344
343
342
343
340
339
338
338
339
336
333
332
333
334
335
334
333
334
335
335
334
334
334
336
336
336
335
335
337
338
337
336
336
338
338
338
337
336
337
339
342
342
341
341
342
341
339
339
340
342
342
341
342
345
344
342
339
339
341
343
341
337
335
337
338
337
336
336
336
337
338
337
337
337
338
336
336
337
340
344
350
358
368
378
388
396
396
388
373
354
334
317
307
303
303
309
315
321
327
332
333
334
335
336
337
337
335
335
336
338
338
340
341
342
342
341
341
341
342
341
341
340
341
344
343
342
341
341
345
349
347
345
345
346
347
346
344
344
348
351
350
348
348
349
349
348
348
344
343
343
343
343
343
344
342
339
337
338
339
337
334
333
334
336
337
336
334
335
336
336
336
335
335
336
336
336
336
335
336
336
336
335
334
336
336
336
335
335
337
340
342
342
342
341
342
341
340
340
341
342
342
342
342
345
344
343
340
339
341
342
341
338
335
335
335
336
336
337
338
338
338
338
338
338
339
339
338
338
340
344
347
354
364
376
386
394
397
392
379
360
340
321
310
305
304
308
313
319
325
330
332
334
336
337
337
338
335
336
337
337
337
339
343
343
343
342
341
341
341
342
341
340
341
341
341
340
340
340
343
346
346
345
346
346
345
344
344
344
346
349
350
349
349
349
349
349
347
345
343
343
343
343
343
344
343
339
337
338
339
337
334
333
334
336
336
335
333
333
333
334
334
333
333
333
334
334
334
335
335
336
336
334
334
335
337
336
335
336
337
338
341
341
340
341
341
341
340
341
342
342
341
340
341
345
345
342
339
339
340
341
341
338
335
334
335
335
335
336
336
337
336
336
337
337
337
336
337
337
338
343
346
354
365
375
385
392
399
396
383
366
345
325
312
306
305
308
313
319
325
330
333
334
336
337
338
337
336
335
337
337
337
338
340
342
342
341
341
340
341
341
341
340
340
341
342
341
340
340
343
347
347
346
345
345
346
345
344
344
345
348
350
349
350
349
348
347
347
345
343
342
342
342
343
343
341
337
336
337
339
338
333
331
332
334
335
335
334
335
336
337
336
334
335
335
335
335
335
335
336
338
336
335
335
337
337
336
335
335
336
337
339
341
341
342
343
342
341
342
342
342
341
341
341
345
346
341
338
338
340
341
340
338
335
335
336
336
338
338
339
340
338
337
337
338
338
337
337
337
337
340
343
350
360
372
382
391
395
395
385
370
350
329
315
307
304
305
311
317
324
330
332
334
336
338
339
337
336
336
338
339
337
338
341
343
343
342
340
341
342
343
342
341
342
341
341
340
341
341
343
345
346
345
344
345
346
345
344
344
345
349
349
349
349
349
348
347
347
347
345
343
343
342
342
344
342
338
336
337
338
339
335
333
334
335
336
336
334
335
336
336
336
335
334
335
336
335
335
335
337
337
337
335
336
336
338
337
336
336
337
337
339
341
343
343
343
341
341
341
342
343
342
342
341
344
346
345
341
340
341
343
342
341
338
336
336
336
335
336
337
338
337
336
338
338
337
335
335
336
337
340
343
348
358
369
379
388
395
396
388
372
352
332
316
307
303
304
309
317
323
328
330
331
334
336
337
336
335
335
336
337
337
336
339
342
342
341
340
341
342
343
341
340
340
341
342
342
341
341
343
345
346
345
345
345
346
345
346
346
346
348
349
350
350
350
351
350
350
349
346
344
342
343
344
345
344
341
337
337
338
339
335
332
333
334
335
335
334
335
335
335
335
334
334
336
337
336
335
335
337
337
335
334
335
337
338
336
335
335
337
338
339
340
342
342
342
342
341
341
342
343
342
342
342
344
345
343
340
341
341
342
341
339
337
337
337
336
336
337
338
338
338
337
337
338
338
337
338
338
338
339
342
347
358
369
380
387
395
399
394
378
357
337
320
310
304
303
307
315
321
328
331
332
335
336
337
337
336
336
337
337
336
336
339
343
343
342
340
340
342
342
342
341
341
342
342
342
342
340
340
344
346
346
346
346
346
345
344
344
345
346
348
349
349
349
349
348
348
348
347
344
342
342
343
345
344
340
337
336
338
339
335
333
334
335
335
333
332
333
334
334
333
333
334
335
334
334
335
336
336
336
336
335
336
337
337
336
336
336
337
337
338
341
342
342
341
340
339
340
341
342
342
340
341
343
345
344
340
339
341
342
341
340
337
336
336
336
336
337
338
338
336
335
336
337
337
337
336
337
338
339
341
345
356
365
377
384
392
397
394
380
361
340
323
311
304
302
306
313
320
326
329
331
333
336
338
337
335
335
335
337
336
336
338
342
343
341
341
341
342
342
341
341
342
341
341
340
340
340
341
343
345
345
345
345
345
344
344
345
346
347
348
348
351
351
350
349
349
349
347
345
344
343
343
345
344
341
338
338
340
340
338
333
333
334
335
334
334
336
335
336
335
334
334
335
335
334
333
334
336
336
337
335
335
336
337
336
336
336
338
337
338
341
343
343
343
342
342
341
342
342
341
340
341
343
347
346
342
339
340
341
342
340
339
337
336
335
334
334
336
336
335
335
335
337
338
337
336
337
338
339
340
345
353
364
375
383
391
397
396
385
366
344
326
313
306
303
305
312
320
326
329
331
334
337
338
336
335
336
337
338
337
336
339
342
343
341
340
341
343
343
342
342
342
342
343
341
340
341
342
344
346
347
347
347
346
346
345
345
346
348
349
349
350
351
350
350
349
350
349
346
344
343
344
345
344
341
337
337
338
339
337
333
333
335
336
335
334
334
335
336
336
335
334
335
336
336
334
334
335
336
336
336
336
336
337
336
335
336
338
338
336
338
341
343
344
343
341
341
341
342
342
341
342
343
345
345
342
341
342
342
341
340
339
338
337
336
337
337
338
337
337
337
337
337
337
337
336
336
337
338
340
342
350
361
372
380
389
396
397
387
370
349
331
316
307
303
304
310
318
325
330
331
333
336
337
336
336
335
335
336
336
335
337
340
341
341
341
341
342
343
341
340
341
342
342
340
340
340
342
344
345
346
346
346
346
344
343
345
346
346
348
349
350
350
349
348
348
348
348
345
343
341
343
343
344
342
338
337
338
338
337
333
332
334
334
334
333
334
335
335
334
334
335
336
336
335
333
334
336
336
336
335
335
337
337
336
335
335
336
336
335
337
340
342
342
340
339
339
340
340
340
340
341
341
343
344
341
340
341
341
340
339
339
337
336
335
335
335
336
337
337
336
335
336
336
336
336
337
337
337
339
342
349
360
370
379
387
396
400
392
374
353
334
319
308
303
303
309
318
324
328
331
334
336
338
337
336
337
336
337
336
335
336
341
343
342
340
340
342
342
341
339
339
341
342
341
340
340
341
341
343
344
344
346
345
344
343
343
344
345
346
348
350
351
350
347
346
348
348
346
343
343
343
345
345
343
340
337
338
338
337
334
333
334
335
334
333
333
334
335
336
334
335
336
336
335
334
335
336
336
336
335
335
335
336
335
335
335
335
336
335
338
341
343
343
341
340
341
342
342
340
340
341
342
343
345
342
340
339
340
340
339
339
338
335
335
335
337
338
337
336
335
336
337
337
337
337
337
338
338
338
341
347
357
367
377
387
395
398
393
377
357
337
322
312
304
303
307
315
322
327
331
332
336
338
338
336
335
336
336
336
336
337
340
342
341
340
340
341
341
340
340
341
343
341
340
340
340
341
342
344
345
346
347
344
343
342
344
345
344
345
347
349
349
349
347
347
347
348
345
342
342
343
344
345
343
340
338
337
338
338
335
333
332
333
333
332
333
335
335
334
333
334
336
335
334
335
335
336
335
335
335
335
336
336
335
334
335
337
337
336
336
340
342
342
341
340
341
341
340
339
340
340
341
343
345
343
342
341
342
342
341
341
339
337
336
335
335
336
337
337
337
337
337
337
336
336
337
338
338
338
340
346
355
366
374
383
391
398
395
382
361
342
325
312
305
303
306
313
319
323
327
331
335
337
336
336
336
337
337
336
335
336
339
341
341
340
339
340
340
340
341
342
342
341
341
341
341
342
342
342
345
347
347
345
343
343
344
346
347
347
348
349
349
349
349
349
348
349
346
342
341
341
344
343
343
340
338
338
338
338
336
334
334
333
334
334
334
335
335
334
334
335
336
335
335
335
336
335
335
336
336
337
338
337
335
335
336
337
338
337
336
339
341
343
341
340
340
342
342
341
340
340
342
343
345
344
341
340
341
340
341
342
340
339
337
336
338
339
338
337
337
337
338
338
338
337
338
339
338
338
341
346
354
364
373
382
391
399
397
385
367
346
327
313
305
302
305
312
319
323
327
331
334
337
337
336
336
336
336
335
334
335
339
341
342
341
340
342
341
342
341
341
343
343
341
340
340
341
341
342
345
347
346
345
344
343
344
345
345
344
346
348
350
350
349
349
349
350
347
343
342
343
344
344
344
341
338
338
340
338
337
335
335
335
335
334
333
334
335
335
334
336
337
337
335
334
334
335
336
335
335
336
337
337
336
335
336
337
338
337
337
340
344
343
341
341
341
341
341
339
338
339
341
341
343
343
341
340
340
341
342
341
339
336
334
333
335
337
337
336
335
336
338
338
336
335
336
337
338
337
339
343
350
360
369
378
387
396
397
387
370
351
332
316
306
303
304
311
318
323
327
331
334
337
336
335
336
337
338
337
335
336
338
340
341
341
341
342
342
341
339
340
341
341
341
340
340
340
340
340
342
344
344
345
344
343
344
345
345
344
346
348
350
350
347
346
346
347
346
343
341
342
343
343
341
339
338
338
338
337
336
333
332
332
332
332
333
333
333
332
331
332
334
335
334
334
334
334
335
335
335
335
335
336
335
335
336
337
337
336
336
339
342
343
341
341
341
342
341
341
341
341
342
341
342
344
342
341
341
341
340
341
341
338
336
336
336
338
337
335
335
336
337
337
336
336
336
337
338
338
340
343
350
359
369
379
387
396
398
390
373
354
335
319
308
303
304
310
318
323
327
331
333
336
336
335
335
336
337
337
337
336
338
341
341
341
341
342
342
341
341
342
343
342
341
340
340
340
341
340
343
345
347
346
344
343
345
347
346
344
345
348
349
349
347
346
347
348
348
344
341
341
344
344
342
341
339
338
338
338
337
334
333
333
333
333
333
334
334
333
333
334
335
335
334
334
334
335
336
335
334
335
335
335
335
335
336
336
336
336
335
336
340
341
340
340
340
341
341
339
339
340
340
340
341
343
342
342
341
340
340
340
341
339
337
336
335
336
337
337
337
337
337
336
335
334
336
338
338
337
337
341
347
356
365
374
384
394
397
391
375
357
338
320
308
302
302
308
315
320
324
331
334
334
334
334
335
336
336
335
334
335
336
339
341
341
342
343
343
342
340
341
342
342
340
339
340
341
341
340
341
344
345
346
344
343
344
345
346
345
345
347
350
350
348
346
348
348
349
346
343
343
344
344
343
341
339
339
338
338
337
335
334
333
333
333
334
335
335
334
333
334
335
335
334
334
334
336
335
334
334
336
337
337
335
334
335
336
336
335
334
337
341
342
340
341
340
341
343
339
339
339
341
341
341
343
343
342
342
340
340
341
342
340
336
335
336
337
337
337
337
337
338
338
336
336
337
338
338
337
338
341
347
354
363
373
383
392
398
394
379
361
342
324
310
304
301
305
313
319
324
329
332
334
335
335
335
335
336
335
335
335
336
338
340
340
341
342
340
340
339
340
341
341
341
340
340
341
340
339
342
345
347
346
346
344
346
345
345
345
344
349
351
351
348
347
348
349
349
346
343
343
344
344
344
343
341
339
338
337
337
337
335
334
334
333
334
335
334
333
333
334
335
336
334
334
334
335
336
335
334
336
336
336
335
335
335
336
336
335
335
336
340
343
343
342
342
343
342
341
339
340
341
341
340
343
344
342
340
338
339
340
342
339
337
335
335
337
337
337
336
336
338
338
337
336
336
338
338
336
336
340
345
352
361
370
380
390
395
393
382
365
345
327
312
304
301
305
312
317
322
327
331
332
332
333
334
335
335
334
333
333
334
336
339
340
340
339
339
340
339
340
341
341
339
338
339
341
341
340
342
345
347
347
345
344
343
345
346
344
343
346
351
351
349
348
348
349
350
347
343
343
344
345
344
343
342
341
339
338
338
337
334
332
332
333
333
334
334
334
333
334
335
335
334
333
334
335
336
335
334
334
335
335
335
334
335
335
335
335
336
337
339
340
340
340
341
341
341
340
339
340
341
341
341
343
344
342
340
338
338
340
341
340
336
333
334
336
337
335
335
335
337
337
336
335
336
337
337
337
337
340
344
350
359
369
379
389
396
397
387
370
352
333
316
306
302
305
311
317
323
328
332
333
335
336
336
336
337
336
335
336
337
338
340
341
342
342
342
340
340
340
341
342
340
339
339
340
340
340
340
343
346
346
345
344
344
345
344
343
342
346
350
350
349
348
348
348
348
346
343
342
343
344
343
344
343
339
338
338
337
338
336
333
333
333
334
336
336
335
334
335
335
335
334
334
335
336
336
336
334
334
335
336
336
336
336
336
335
335
335
336
339
341
341
340
341
341
341
340
340
340
341
341
340
341
344
343
341
339
338
340
341
340
336
336
336
337
337
336
336
336
337
337
336
336
337
337
337
336
336
338
343
349
357
367
376
385
393
395
387
372
354
334
318
307
303
304
309
315
321
327
332
333
334
335
336
337
337
336
335
336
337
337
339
340
341
342
341
340
340
341
343
342
340
339
339
340
340
340
339
342
345
345
343
342
343
344
345
343
343
345
349
349
348
347
348
348
348
347
344
342
342
342
341
341
341
339
339
337
336
336
334
333
332
333
334
335
334
334
334
334
334
335
334
333
334
335
336
335
335
336
337
337
335
334
335
336
336
335
335
336
338
341
342
342
341
342
341
341
340
340
341
341
341
341
346
344
341
341
340
341
342
341
339
335
335
337
337
336
335
336
337
338
337
337
337
337
337
336
336
337
341
346
354
363
374
384
392
395
390
377
360
339
321
309
303
303
306
312
318
324
330
332
333
334
335
336
336
335
335
335
336
337
338
340
341
341
340
340
341
341
341
341
340
339
340
340
341
341
340
343
346
346
344
343
345
344
344
344
344
346
350
350
349
347
347
347
347
346
343
342
343
343
342
342
343
342
339
337
337
338
337
335
334
335
335
336
336
335
334
335
335
335
334
335
335
335
336
334
333
335
336
336
334
335
336
337
337
335
335
337
338
341
341
340
341
341
341
341
341
341
342
342
341
342
346
345
342
340
339
342
344
343
339
336
336
337
337
336
336
337
338
337
335
336
337
338
338
336
336
337
341
346
353
363
373
384
392
398
395
382
364
343
325
311
304
304
307
312
319
324
330
332
333
334
335
336
336
336
335
335
335
336
337
339
341
343
343
341
340
340
341
341
341
340
340
341
341
340
339
342
346
347
345
344
344
345
344
343
343
345
349
350
349
349
349
349
349
348
346
344
344
343
343
343
343
343
340
337
338
339
338
335
333
333
334
336
335
335
333
334
336
335
335
333
334
335
336
336
335
335
336
336
335
334
335
336
336
335
335
337
337
340
340
341
341
341
341
340
339
341
341
341
340
340
343
344
341
338
338
340
341
341
337
334
334
336
336
336
335
336
336
336
335
335
336
337
337
338
336
335
339
343
350
360
371
381
389
395
394
383
367
347
327
313
306
303
305
310
315
321
328
331
332
334
335
335
335
334
335
335
336
336
336
338
340
341
341
340
339
339
340
340
339
339
339
340
339
339
339
341
345
346
345
343
344
344
344
343
343
344
347
349
349
348
348
348
348
347
346
344
344
342
343
342
343
342
339
337
337
339
338
335
332
333
334
335
335
334
334
335
335
335
333
334
335
336
335
334
334
335
335
335
334
334
335
336
335
334
334
335
336
338
340
340
341
342
341
339
339
340
341
340
339
340
343
344
342
339
339
340
341
341
339
336
336
337
337
335
335
335
337
337
335
335
336
336
336
336
337
337
340
343
348
359
370
379
388
395
396
388
372
352
332
316
307
304
304
309
317
324
330
332
333
335
336
336
335
335
336
337
337
336
336
339
341
342
341
340
339
340
341
341
339
339
340
341
340
340
340
342
345
346
346
344
347
346
346
344
343
345
348
350
349
348
348
348
349
348
346
344
343
341
341
342
343
343
339
337
337
337
336
334
331
331
333
333
333
332
334
334
335
334
332
333
335
334
334
334
334
334
335
336
335
335
335
336
336
335
335
336
337
338
340
340
341
342
341
339
339
340
341
341
340
340
343
345
342
339
339
340
341
340
339
336
336
336
335
336
335
336
336
336
335
335
336
338
336
334
335
336
338
341
348
356
367
377
385
393
396
391
376
356
336
319
308
304
303
308
315
322
327
332
332
334
337
338
337
335
335
337
337
336
336
338
341
342
342
340
341
342
342
342
340
340
340
341
341
341
339
339
343
345
345
344
344
345
345
344
344
344
346
348
349
348
349
349
347
347
346
344
343
342
342
342
345
344
340
337
337
338
339
336
333
333
333
335
336
334
334
335
336
335
334
336
337
337
336
335
335
335
336
335
334
334
335
336
336
335
335
336
336
337
340
342
341
341
341
341
342
343
343
342
341
341
343
345
343
339
339
341
342
342
340
336
335
335
337
336
336
338
338
337
336
337
338
339
337
337
337
339
341
342
346
354
367
377
385
392
396
392
380
361
339
322
310
305
303
306
313
320
326
330
331
334
337
338
336
335
335
336
337
336
336
338
341
342
341
341
341
341
341
341
340
340
340
340
340
340
340
340
343
344
344
344
345
345
343
342
343
344
345
348
348
348
349
349
348
346
346
345
343
342
341
343
345
345
340
336
335
337
338
336
334
332
334
335
335
334
334
335
335
334
334
334
336
336
335
334
335
336
336
336
336
337
337
336
336
335
336
336
337
339
341
342
341
341
341
340
340
341
341
341
340
340
341
344
343
340
340
342
344
342
340
338
336
336
336
336
337
338
338
337
337
338
339
339
338
338
337
337
338
340
344
351
362
374
383
390
396
395
384
365
344
326
313
306
304
307
313
319
325
329
332
335
337
336
336
335
335
336
336
335
335
338
342
343
342
340
339
339
340
340
339
340
341
342
341
339
340
342
343
344
344
344
345
344
343
343
343
344
346
348
349
348
348
348
348
348
347
346
344
342
341
342
343
343
341
337
336
338
339
337
333
332
333
335
334
334
335
334
334
335
334
333
334
335
334
333
334
335
336
336
335
336
336
337
336
334
336
338
338
337
338
340
341
342
341
340
340
341
342
341
340
340
341
344
343
340
339
340
341
340
339
338
337
335
334
334
335
336
336
336
335
336
337
338
337
336
336
337
338
339
342
350
361
371
380
389
397
397
386
369
349
330
316
307
303
304
310
317
323
328
330
333
336
338
337
336
336
336
337
336
335
337
342
343
341
341
340
341
341
340
339
339
340
340
340
340
340
340
342
344
344
344
344
345
344
344
344
344
344
347
348
348
349
349
348
349
349
348
345
343
343
343
344
343
342
339
338
339
339
338
334
333
334
334
333
333
334
335
336
336
335
335
336
335
334
335
335
337
336
335
335
334
337
337
336
336
336
338
338
337
338
341
342
342
342
340
340
341
341
340
340
341
342
343
344
341
340
341
342
341
340
340
339
337
335
336
336
337
338
338
337
336
337
338
338
338
338
338
338
340
343
351
360
370
379
387
396
399
390
373
352
333
318
307
302
301
307
315
322
327
330
331
333
334
334
333
333
334
335
334
334
335
338
340
340
338
338
339
339
340
338
339
341
342
341
339
339
339
340
342
343
344
344
345
345
346
346
347
346
346
348
350
352
351
349
348
348
348
346
343
342
343
344
343
342
339
337
338
339
337
334
334
334
334
333
333
334
336
336
334
334
334
336
337
335
333
333
335
336
335
334
334
335
336
336
335
336
338
337
336
338
341
344
343
342
341
341
343
343
342
341
341
342
344
346
343
341
341
341
340
340
340
338
336
335
335
337
338
337
337
336
337
337
337
337
336
336
338
339
340
343
348
358
369
377
386
394
399
393
377
358
338
322
310
303
302
307
315
322
325
329
331
335
336
335
334
334
335
335
334
334
335
338
341
342
341
340
340
340
340
340
340
341
342
341
340
341
342
343
344
345
345
345
346
345
345
345
345
345
346
347
350
350
349
348
347
348
349
346
343
342
342
344
346
345
340
337
339
340
339
336
334
335
335
335
334
335
336
336
334
334
334
336
335
334
334
335
335
336
335
334
335
337
337
336
336
336
338
338
336
337
341
343
343
341
340
341
342
342
341
341
341
342
342
344
343
342
342
342
340
339
339
338
337
336
337
336
337
337
336
335
336
337
338
337
336
337
337
336
336
339
345
354
364
373
383
392
398
394
380
360
340
323
310
304
303
306
313
319
324
328
332
336
336
335
333
334
336
336
335
336
336
339
342
341
340
340
341
341
341
340
340
341
341
339
340
340
342
342
343
345
346
346
346
345
344
345
345
345
345
347
349
350
350
349
348
348
348
346
343
342
343
343
343
342
340
338
338
338
338
335
334
334
334
334
334
335
335
335
335
335
335
336
336
336
335
336
336
335
334
334
335
336
336
335
335
336
337
338
336
335
339
341
341
341
341
341
341
341
340
340
341
342
342
343
343
341
341
341
340
340
341
340
336
334
334
336
337
337
336
336
337
338
338
336
337
337
337
339
337
340
345
353
363
371
381
391
397
395
382
364
343
327
314
303
301
304
311
318
323
328
332
334
335
335
334
335
336
335
335
334
334
337
339
339
340
341
341
341
340
338
339
341
342
341
340
340
342
341
342
346
347
347
346
345
345
346
347
345
345
347
350
351
349
347
347
348
349
348
344
342
343
344
344
342
341
339
338
338
338
337
335
334
334
333
334
335
336
334
333
333
334
336
336
334
334
336
337
336
335
334
334
336
336
335
334
335
335
334
334
335
339
341
341
340
340
340
341
340
340
340
341
341
341
343
344
342
341
340
340
341
341
340
336
334
334
336
336
336
336
335
336
337
336
335
336
337
338
337
336
338
343
351
360
369
378
388
396
396
385
368
348
330
315
305
302
304
311
317
321
326
331
333
335
335
335
336
336
336
335
336
337
338
340
340
341
342
342
341
339
339
341
342
342
341
340
341
342
342
342
344
346
347
347
346
345
346
348
347
345
347
350
352
350
348
347
348
349
348
344
342
343
344
343
342
342
340
338
338
338
337
336
334
334
334
335
336
336
335
334
335
336
337
336
335
335
336
336
335
334
334
336
337
337
335
335
336
336
335
335
335
338
342
343
341
339
341
341
341
340
340
341
341
341
341
342
342
340
339
339
340
340
339
336
333
334
336
337
336
336
336
337
337
337
335
336
336
337
337
337
339
342
349
358
368
377
387
395
397
388
372
353
335
318
307
302
303
309
316
321
325
330
332
334
334
333
334
335
335
334
334
335
336
339
340
341
340
341
340
339
338
340
341
340
339
339
339
340
339
339
342
345
345
344
343
344
345
345
344
343
345
349
350
349
348
347
347
348
347
344
342
342
343
342
341
341
339
338
338
338
339
337
334
333
332
333
334
335
333
333
333
335
337
336
334
333
333
333
333
333
334
334
335
334
333
334
336
336
335
333
333
337
340
341
340
340
340
340
340
340
340
341
342
341
341
343
342
341
340
341
341
341
340
337
334
333
335
336
337
336
336
336
336
336
337
337
337
338
336
337
338
342
348
356
366
376
386
394
397
391
377
359
340
321
308
304
304
309
315
320
325
330
333
335
336
336
336
337
337
336
336
337
339
340
341
342
341
342
341
340
340
340
341
340
339
340
341
342
342
341
343
346
347
346
343
344
345
346
345
344
345
347
349
349
348
349
349
349
348
345
343
343
345
344
342
341
340
339
337
337
337
336
335
334
334
335
335
336
335
335
335
335
335
335
335
335
335
336
335
335
334
335
336
338
335
335
336
336
336
335
336
338
341
342
341
341
341
341
340
339
340
341
341
341
341
344
345
345
341
340
339
341
342
338
336
336
337
337
337
337
337
338
337
337
337
337
337
338
337
338
338
343
347
355
364
374
384
393
397
393
381
364
344
325
311
306
304
307
314
319
325
331
334
335
335
335
337
338
337
335
335
336
337
338
340
341
341
341
340
340
340
341
342
341
341
341
342
342
341
341
344
347
347
346
345
346
347
346
346
344
345
349
351
349
348
348
349
349
349
345
343
343
344
343
344
344
343
340
337
337
338
337
336
333
333
334
336
336
336
335
335
336
337
336
336
335
336
336
336
335
335
336
336
336
335
336
337
337
335
335
335
338
341
341
342
342
344
344
343
342
341
342
343
342
341
344
345
345
341
340
341
343
343
340
336
336
337
338
337
337
337
337
338
336
337
337
338
338
337
337
338
341
345
351
361
371
382
391
396
395
384
368
347
327
312
305
303
306
311
316
322
328
332
333
334
335
336
336
334
336
337
337
337
338
340
341
341
341
340
340
340
341
342
340
340
339
341
341
341
339
341
346
346
344
343
343
345
345
343
343
343
347
350
351
349
349
350
350
350
347
344
344
345
343
343
343
343
341
338
337
338
338
336
335
334
335
336
336
335
334
335
336
336
335
334
335
336
335
335
335
335
336
336
336
335
336
336
337
336
336
336
337
339
341
341
341
342
342
341
340
341
342
341
339
340
343
344
342
339
339
339
340
340
339
335
335
335
336
336
336
337
338
338
338
337
337
337
337
337
336
337
341
344
349
358
368
379
389
395
395
388
372
352
331
316
308
305
306
312
317
323
328
332
333
336
338
339
338
337
337
337
337
338
337
340
342
343
342
341
340
340
340
341
340
340
340
341
341
340
340
341
345
347
346
345
346
346
345
344
343
344
346
349
349
348
347
348
349
348
347
344
342
342
342
341
342
344
340
337
337
338
338
336
333
333
334
335
335
333
332
332
334
335
335
334
335
336
336
335
334
334
335
335
334
334
335
336
336
335
334
334
336
338
340
340
340
340
340
339
339
340
341
341
339
338
341
344
342
340
339
340
341
341
339
336
334
336
336
335
336
336
336
336
335
335
336
338
338
337
336
336
340
343
348
356
367
377
385
392
396
390
374
354
334
317
307
304
305
308
314
321
327
331
332
334
335
337
336
335
334
335
336
336
336
340
342
343
343
341
341
341
343
342
340
339
342
342
343
341
340
341
345
347
346
345
344
345
345
344
344
344
347
349
350
349
349
349
350
348
348
346
345
345
344
343
343
345
341
338
337
338
339
336
333
332
333
335
335
334
334
333
335
335
334
333
333
335
335
333
333
335
335
335
334
334
335
336
336
335
335
336
336
338
339
340
340
340
340
339
339
339
340
340
340
339
341
345
344
340
337
337
339
339
339
335
334
334
335
334
334
334
335
336
335
335
336
336
336
335
336
337
339
341
346
354
365
376
385
392
396
392
379
360
340
323
310
305
303
305
312
320
325
329
331
333
335
337
336
334
334
335
336
337
336
339
341
342
341
339
339
340
341
341
339
339
341
342
342
340
339
339
343
347
345
344
343
344
344
344
344
344
345
348
349
349
349
348
347
346
347
344
343
342
342
342
342
343
340
337
336
337
339
337
333
332
333
335
335
334
333
334
335
335
334
333
334
336
336
335
334
335
336
336
334
334
336
337
338
336
335
336
336
337
340
341
342
341
340
340
339
340
341
341
339
339
341
344
343
340
338
340
342
341
341
338
336
336
335
334
334
335
337
338
336
336
337
337
337
336
336
337
339
342
345
353
363
375
384
392
397
395
383
365
344
325
311
304
302
305
311
318
325
330
331
333
335
336
336
337
336
337
338
337
335
336
340
343
342
341
341
341
342
341
340
339
340
341
341
340
339
340
343
345
346
344
344
346
345
344
344
345
346
349
349
349
350
350
350
349
348
346
344
343
342
343
344
344
341
337
336
337
339
338
334
332
333
335
335
334
332
333
334
334
332
333
335
337
336
334
334
334
335
335
334
333
335
335
335
334
335
336
337
337
339
340
341
342
342
341
340
342
343
342
341
341
341
343
344
341
338
339
340
341
341
339
336
336
336
335
336
336
337
336
335
335
336
337
336
336
336
336
337
340
343
351
362
373
382
389
395
396
386
369
347
329
315
307
303
304
309
317
323
328
331
333
335
336
336
336
335
335
335
335
334
336
340
343
343
340
340
341
341
340
340
339
340
341
341
340
340
341
343
346
346
344
345
346
346
344
344
345
345
347
349
349
350
350
349
347
347
347
344
342
341
341
342
343
341
337
335
337
338
337
333
332
334
334
334
334
333
335
335
335
335
335
336
336
336
335
335
336
336
336
335
335
336
337
336
335
335
336
337
337
339
340
341
342
341
340
340
341
342
341
340
339
340
344
345
342
340
340
341
341
340
340
338
336
336
336
337
337
337
336
335
335
337
339
338
338
337
337
337
339
342
349
359
370
379
386
394
397
389
373
352
333
317
308
305
305
309
316
322
327
330
332
335
337
336
335
334
335
337
337
336
335
339
342
341
340
340
341
341
341
340
340
341
341
341
340
340
341
342
344
345
346
345
345
344
344
344
345
346
347
348
349
350
350
348
347
347
348
346
343
342
343
344
345
343
339
337
338
339
338
334
331
333
335
336
334
334
334
336
336
334
334
335
336
335
334
334
334
335
335
334
334
336
337
338
335
335
336
336
336
337
340
344
343
341
339
339
340
341
340
339
339
340
343
345
344
341
340
341
341
341
340
338
336
336
336
337
337
337
336
336
336
337
338
338
337
336
336
337
340
342
348
357
369
378
386
394
399
393
377
357
337
322
311
304
303
308
315
322
326
329
331
334
336
336
335
334
335
335
334
334
335
339
341
341
340
339
340
341
341
341
340
341
341
341
340
340
341
342
345
347
346
345
345
345
345
344
344
344
346
347
349
349
349
348
347
346
347
346
342
340
340
341
343
342
338
337
337
339
338
335
333
334
335
335
334
334
334
334
333
333
334
335
336
335
335
335
335
335
335
335
335
336
336
336
336
335
336
337
336
337
339
341
341
340
339
339
340
341
341
340
340
341
344
345
343
341
341
342
342
340
340
338
337
336
336
336
336
337
337
336
336
337
337
337
335
336
337
339
339
340
345
354
366
375
383
392
397
394
380
360
340
323
311
304
302
307
314
321
326
330
332
335
337
337
335
335
337
337
337
337
336
339
342
343
342
341
341
342
341
341
341
341
342
342
340
340
342
343
345
345
345
346
345
345
344
345
346
345
345
346
348
350
350
349
348
348
349
347
343
341
342
343
343
343
339
337
337
338
339
336
334
334
335
336
335
335
334
336
335
334
335
336
336
335
334
335
335
336
336
335
335
336
336
336
334
336
336
336
336
336
338
340
341
341
340
340
341
342
342
341
342
342
342
344
343
341
340
341
341
340
339
338
337
336
335
336
337
337
337
336
336
336
337
337
335
337
337
337
337
339
343
352
363
373
381
390
397
395
382
363
343
325
312
305
301
304
313
320
325
328
330
333
336
336
335
335
336
337
337
337
336
339
342
343
342
341
342
342
342
341
341
342
342
340
339
339
340
340
342
344
345
346
345
344
343
343
344
344
344
345
348
350
350
349
347
347
347
346
342
340
340
342
344
344
341
338
337
338
338
336
333
333
334
335
333
335
335
337
335
334
334
335
336
336
336
336
337
338
336
336
336
337
337
336
336
336
337
337
336
335
339
343
343
341
340
340
341
342
342
340
341
341
341
344
344
342
341
341
340
340
340
340
338
336
336
335
337
337
337
336
336
337
337
337
336
336
337
337
337
338
342
351
362
372
381
390
397
397
386
368
348
330
316
306
302
304
311
318
323
327
331
334
337
337
335
335
336
337
336
336
336
338
341
342
340
340
340
341
341
339
338
339
340
341
340
340
341
341
341
343
345
346
345
345
344
343
344
345
343
345
347
347
348
347
347
347
347
347
343
341
341
342
343
342
340
337
336
336
336
335
333
333
334
335
334
334
334
335
335
334
334
334
335
334
333
334
335
336
335
334
335
336
337
336
334
334
337
336
336
335
337
341
342
340
339
340
341
341
341
340
340
341
341
342
344
342
341
339
339
340
340
340
337
334
333
335
336
336
335
334
335
336
336
337
336
336
336
337
336
337
340
349
359
368
376
385
394
397
389
372
352
335
319
308
303
303
310
319
324
328
332
335
337
337
335
334
336
336
336
336
336
338
341
342
341
341
342
342
341
340
339
340
340
340
339
339
339
340
341
343
346
347
347
345
343
344
345
345
345
345
347
349
348
347
346
346
349
350
346
342
341
343
343
343
341
338
337
338
338
337
334
332
333
334
333
333
336
335
334
333
333
334
335
335
335
334
336
337
336
335
335
336
337
337
336
336
336
335
335
336
338
342
343
342
341
340
342
342
341
339
339
340
342
342
345
342
341
341
340
340
341
341
339
337
335
334
337
337
336
335
335
336
337
336
336
336
337
338
337
338
341
349
358
367
375
384
393
398
393
377
358
338
320
307
302
302
308
315
320
324
329
332
334
335
336
336
336
337
335
335
335
337
340
342
342
341
341
341
340
339
340
341
342
342
340
340
342
343
342
343
345
346
347
345
344
344
345
346
345
344
348
351
351
350
348
349
350
350
345
342
341
343
344
343
342
339
338
339
338
337
335
333
334
334
334
335
335
335
335
335
335
335
336
336
334
335
336
336
335
335
334
335
337
336
335
335
336
337
336
336
338
341
343
342
341
342
342
342
341
341
341
342
342
343
344
344
341
342
341
340
341
342
339
336
335
336
338
339
338
336
337
339
339
338
337
337
338
339
338
337
340
346
356
366
375
383
392
398
394
380
361
341
323
310
303
303
307
313
319
323
328
332
334
335
334
335
336
337
336
335
335
336
338
340
340
339
340
340
339
338
339
340
341
341
340
340
341
341
340
341
345
346
346
344
344
344
345
345
345
344
347
349
351
349
348
347
348
348
345
343
342
343
343
342
341
339
338
338
337
337
336
334
333
333
332
332
334
335
334
333
333
335
335
335
335
335
335
336
335
334
334
335
335
335
334
335
336
336
335
334
334
339
342
340
339
339
340
340
340
340
341
341
341
341
343
342
342
340
338
338
340
341
341
336
335
336
337
337
337
335
336
337
336
336
336
336
336
337
337
337
340
345
353
361
371
381
390
397
395
382
364
345
327
312
305
303
306
312
319
324
329
333
335
336
335
336
337
337
336
336
335
336
338
339
340
340
341
341
340
341
341
341
342
342
341
340
341
342
341
342
345
348
347
345
343
343
344
345
344
343
346
351
352
349
348
348
349
349
347
344
343
344
343
343
342
340
338
338
337
337
336
335
334
333
333
333
335
335
334
333
333
334
334
333
332
333
334
335
335
334
334
335
335
335
333
333
334
335
336
335
335
339
342
342
339
339
339
341
341
339
339
340
341
340
342
344
342
341
340
340
340
341
340
337
335
336
338
338
336
335
335
336
336
336
336
337
338
339
338
337
340
345
352
361
370
379
389
397
397
386
369
350
332
316
306
302
305
312
317
323
328
333
334
335
336
336
336
337
336
336
336
336
338
340
341
341
341
341
341
340
340
341
342
341
340
341
341
341
340
341
345
347
346
345
344
343
343
344
344
344
346
349
349
348
347
347
348
348
347
344
342
343
343
343
344
343
340
338
337
337
337
336
335
333
333
334
335
336
335
333
333
335
336
335
334
334
334
335
335
334
334
335
336
335
334
334
334
336
335
335
336
338
341
341
339
339
340
341
340
339
341
342
342
342
345
346
343
341
340
341
341
342
341
338
335
335
337
338
337
337
337
337
337
337
337
338
338
339
337
337
339
343
351
358
368
378
388
397
398
389
375
355
337
318
305
302
305
309
316
321
326
331
333
335
336
336
336
336
335
335
336
336
337
339
339
340
340
340
340
340
340
341
341
340
339
339
341
342
342
341
344
346
346
345
344
345
345
345
344
344
346
350
351
350
349
349
350
351
349
344
342
343
343
343
343
342
341
340
338
337
337
336
334
333
332
332
333
334
334
333
333
333
334
333
333
333
333
334
334
334
334
336
336
337
336
335
335
335
335
334
333
336
340
341
340
339
341
341
339
339
339
341
341
340
341
345
344
342
340
339
339
340
341
337
334
334
335
336
336
336
336
337
337
335
334
335
337
337
336
336
338
342
349
356
366
376
386
394
398
392
378
359
339
322
309
304
304
309
315
320
327
332
334
335
335
335
337
338
337
336
335
336
337
338
340
341
342
342
341
340
340
342
342
341
340
341
341
342
340
340
343
346
347
346
345
345
346
345
344
343
345
349
351
350
349
348
348
348
347
344
343
343
344
343
342
342
340
338
337
337
338
336
335
333
333
333
334
334
334
333
333
334
334
335
335
336
337
338
334
334
335
336
337
335
334
334
337
337
337
336
336
337
340
341
340
340
341
341
340
339
340
341
341
339
339
343
343
342
340
339
339
341
340
337
334
334
337
337
337
338
337
338
338
337
336
336
336
337
335
335
337
341
345
353
363
374
384
391
396
393
380
363
343
323
309
304
303
306
313
319
324
330
332
333
334
335
337
336
335
336
335
336
336
338
340
342
342
341
340
339
340
341
341
340
340
340
341
341
341
340
343
347
347
346
344
343
344
345
344
344
344
347
350
349
348
348
349
349
348
345
343
343
343
343
343
342
341
339
337
336
336
336
334
332
333
333
334
334
333
333
333
334
334
333
333
333
334
335
336
336
337
336
336
335
336
336
338
337
336
336
338
339
341
343
342
341
341
341
341
340
341
342
342
341
341
345
346
343
339
339
339
341
342
339
334
334
335
338
337
335
335
336
336
335
335
336
338
338
336
335
336
341
346
352
362
372
383
390
396
395
384
368
347
327
312
304
303
305
310
317
323
328
331
332
334
335
335
335
335
334
335
336
337
337
339
339
341
341
340
339
339
340
340
340
340
340
340
341
341
340
342
345
346
345
342
342
343
344
344
343
344
348
349
347
346
346
347
347
347
345
342
341
341
342
342
342
341
339
338
338
339
337
334
332
332
333
334
334
333
333
334
335
335
335
334
334
335
335
334
334
334
334
335
335
334
334
336
336
335
335
335
336
339
341
341
342
342
343
342
340
341
342
342
341
340
343
345
343
340
339
340
342
343
341
336
335
337
338
337
335
336
337
338
337
336
337
337
337
336
336
336
340
344
350
359
370
379
388
395
395
387
372
353
333
316
306
304
305
310
317
322
327
331
333
335
336
337
337
335
336
336
337
336
335
338
341
342
341
340
339
340
342
342
341
340
341
341
342
340
340
342
345
346
344
343
344
345
346
344
344
344
348
349
350
349
348
348
349
347
346
343
342
343
343
342
342
341
339
337
336
337
337
335
332
332
334
335
335
334
334
334
335
335
335
334
334
335
336
336
335
335
336
336
334
336
337
337
336
336
336
336
336
338
340
341
341
340
341
340
339
340
342
342
341
340
343
346
346
343
341
341
343
344
342
337
335
336
336
336
335
336
338
339
338
336
337
338
338
337
337
338
339
343
347
356
367
378
387
394
397
392
376
356
335
318
308
304
304
308
314
320
325
329
331
333
335
335
335
335
334
335
336
336
336
337
340
341
341
341
341
341
342
342
340
339
340
341
342
341
339
340
344
346
345
344
344
344
344
343
342
343
346
349
348
347
347
349
348
348
347
344
343
342
342
342
343
344
340
337
337
338
339
337
334
334
335
336
336
334
333
334
335
336
335
336
335
336
336
335
334
335
336
338
336
335
335
336
335
334
334
335
336
336
339
340
340
340
340
339
338
339
341
341
339
338
341
345
343
340
339
339
341
342
341
338
336
336
336
336
336
337
337
337
336
336
337
338
339
337
337
338
341
343
346
355
366
377
386
393
397
393
379
360
339
321
310
304
303
306
312
319
326
331
332
334
336
337
338
336
335
336
337
338
338
339
341
341
341
340
339
340
341
341
339
338
339
340
339
339
339
340
343
346
345
344
344
345
344
343
343
344
346
349
351
349
349
348
348
347
346
344
342
342
341
341
342
344
342
338
337
338
338
338
334
333
334
335
335
336
335
335
336
335
334
334
334
335
335
334
334
334
336
336
334
334
335
336
336
336
336
336
337
338
339
341
341
342
341
340
341
342
341
341
340
339
340
344
345
341
339
339
340
341
340
337
335
335
335
335
334
335
337
337
336
336
337
337
337
337
336
337
338
341
344
352
363
374
383
390
395
394
383
364
342
324
311
305
303
306
312
319
325
329
331
333
335
336
336
335
335
336
337
337
336
337
340
343
342
340
340
341
342
342
343
341
341
341
341
340
340
340
343
345
345
345
345
346
345
344
343
344
346
349
348
348
349
349
349
348
347
346
344
343
343
343
344
344
342
338
337
337
339
337
333
332
333
334
334
334
333
334
334
335
334
334
335
336
336
335
334
336
337
336
335
336
337
338
339
337
336
337
338
338
340
342
342
342
342
340
340
340
341
341
341
340
341
343
344
341
339
339
341
341
340
338
336
336
336
335
336
335
337
336
335
335
336
336
337
336
336
338
337
340
343
350
362
373
381
389
395
395
386
369
347
328
314
306
303
304
310
317
324
329
332
333
335
335
335
334
333
335
336
336
335
335
339
341
341
340
338
339
340
341
340
339
340
341
341
340
340
340
342
345
345
345
345
345
344
343
343
345
346
348
348
349
348
349
348
347
347
347
346
344
342
341
343
343
342
338
336
337
338
337
333
331
332
334
334
334
334
334
335
335
334
334
335
337
337
336
336
337
338
338
338
337
337
337
336
335
335
337
337
337
338
340
341
342
341
340
340
342
343
342
342
342
343
346
346
343
340
341
342
342
341
339
337
336
335
335
335
336
337
337
336
335
336
336
336
335
335
336
337
339
342
347
358
369
379
386
393
396
388
372
351
331
316
307
303
303
308
316
323
328
330
331
334
336
336
335
335
335
336
335
335
335
339
342
341
342
340
341
342
341
340
340
341
341
340
340
340
340
342
344
345
345
346
347
346
344
343
344
345
347
349
348
348
349
349
347
346
346
345
342
340
340
342
343
342
339
337
337
338
338
334
333
333
335
335
334
333
333
335
335
334
334
335
336
335
335
335
335
336
335
334
335
336
336
335
335
335
336
336
337
338
340
341
343
341
340
340
341
342
341
340
340
340
343
344
341
339
339
340
341
340
340
337
335
335
335
335
337
338
337
336
335
337
337
338
336
335
336
338
340
343
349
359
369
379
387
395
398
392
377
358
337
321
310
305
303
307
315
322
327
330
331
334
336
337
336
335
334
335
335
336
336
339
341
341
339
339
340
341
341
342
341
341
343
342
340
341
341
342
344
347
346
346
346
345
344
344
345
346
347
348
349
352
352
349
347
347
347
345
342
341
341
342
343
343
339
337
337
338
338
335
334
333
335
335
335
334
335
335
335
334
333
335
336
336
335
335
335
336
336
335
335
336
337
336
335
334
336
337
336
336
339
341
342
340
339
339
340
340
341
340
340
340
342
344
341
339
339
341
341
341
341
339
337
335
335
336
337
338
337
337
337
337
339
338
337
338
338
338
339
342
346
355
367
377
385
392
396
393
380
360
340
322
310
305
304
307
314
321
326
330
333
335
337
337
336
336
337
337
337
336
336
338
341
342
341
340
341
342
341
340
340
342
342
342
341
341
340
341
344
346
347
347
346
345
345
344
345
346
346
347
349
350
351
349
348
348
349
348
344
343
343
344
344
345
341
338
338
339
339
336
333
334
335
334
334
333
334
335
335
334
335
336
336
335
335
336
337
336
335
335
335
336
337
335
334
335
336
337
336
336
339
341
341
340
339
338
339
342
341
340
339
340
342
345
342
339
339
340
340
340
339
338
337
336
335
335
336
336
336
335
336
337
338
338
337
337
338
338
337
340
344
354
364
374
383
391
398
396
383
365
344
327
314
305
301
305
312
320
325
329
331
334
336
336
335
335
335
336
335
335
336
339
343
343
342
341
342
342
342
341
341
341
343
343
342
342
342
342
343
343
345
346
347
346
346
345
346
347
346
347
349
350
350
349
347
348
349
347
344
342
342
343
344
343
342
339
338
339
339
337
334
334
335
335
334
334
336
337
337
336
335
335
335
336
335
335
336
336
335
334
334
336
337
337
336
336
336
337
336
335
338
342
343
343
341
340
340
341
341
340
340
340
340
343
343
340
340
340
340
341
341
340
337
336
335
335
336
337
337
336
337
338
339
338
337
337
339
339
339
340
345
352
362
371
379
388
396
398
387
368
348
330
315
306
302
305
311
318
323
326
332
333
336
336
334
334
334
335
335
333
333
335
339
340
339
339
340
341
341
341
341
341
341
342
341
341
342
343
343
345
347
347
346
346
345
344
345
346
345
346
349
351
352
350
348
348
348
347
343
341
341
343
344
343
341
339
338
338
338
336
333
333
333
333
333
333
334
335
334
334
334
336
337
336
335
335
336
336
336
336
336
336
336
336
336
335
335
336
335
335
337
341
342
341
339
339
341
342
342
340
341
341
341
343
344
342
341
341
341
340
340
340
338
336
335
336
338
338
337
336
335
336
336
336
336
337
337
337
336
338
341
349
358
368
377
386
396
398
388
372
352
333
318
307
302
303
308
315
321
326
330
333
336
336
335
335
335
336
335
334
334
337
341
342
340
339
340
341
340
340
339
340
342
342
341
341
341
341
342
344
346
347
346
345
344
345
346
346
345
346
348
349
350
350
348
348
349
348
344
342
342
343
345
344
343
340
338
338
338
337
334
333
333
333
333
333
335
335
335
334
334
335
336
335
334
334
335
337
336
337
336
336
336
336
335
336
337
337
336
335
338
342
343
341
338
339
342
342
340
338
339
340
341
342
344
342
341
339
339
339
339
339
337
335
335
336
337
337
335
336
335
337
338
336
336
335
336
337
336
337
341
347
357
367
376
385
394
398
392
377
357
337
321
309
303
303
308
316
321
325
330
334
337
337
336
335
336
337
336
335
336
337
339
341
341
342
343
342
341
341
341
342
342
341
341
341
342
342
340
342
345
346
347
346
344
345
346
346
346
347
349
350
350
349
348
348
350
349
346
343
342
343
344
345
343
340
338
338
338
338
335
334
334
334
334
335
336
336
334
334
335
336
336
335
333
334
336
337
335
334
335
336
337
337
336
336
337
337
335
335
337
341
343
342
340
341
341
341
340
340
340
341
342
341
344
343
341
340
340
339
341
342
339
336
334
334
335
337
337
335
335
337
338
337
336
337
338
338
337
337
340
346
356
365
375
384
393
398
393
379
361
341
324
311
304
302
308
314
319
324
329
332
334
335
336
336
335
335
335
335
336
336
338
340
342
341
342
342
341
342
341
342
342
341
340
340
341
341
341
343
345
346
346
344
344
345
345
346
344
345
348
350
350
349
347
347
348
348
345
342
341
343
344
343
342
340
339
337
337
337
335
333
334
334
333
334
334
334
335
334
334
335
335
335
334
335
334
335
335
334
335
336
336
336
335
335
336
336
335
334
335
340
343
342
341
340
341
342
341
340
339
340
341
341
344
343
342
341
340
339
341
344
340
336
335
337
338
338
336
335
336
337
338
337
337
337
337
337
336
337
340
345
353
362
372
382
392
398
396
383
366
346
328
313
304
302
306
313
320
325
329
333
335
337
336
335
336
336
336
335
336
336
338
340
339
340
340
340
340
339
340
341
342
341
340
340
341
341
340
340
343
345
345
344
344
346
344
345
344
345
347
350
350
349
348
347
348
348
345
341
342
343
343
343
341
341
338
337
336
337
337
335
333
332
333
334
335
335
334
335
334
335
336
335
335
335
335
336
335
334
335
335
336
336
335
335
336
336
335
335
337
340
342
342
341
341
341
341
340
339
340
341
342
342
344
345
344
342
341
341
341
341
340
337
335
336
338
338
336
335
336
337
338
337
336
336
337
337
337
336
339
344
351
359
369
379
389
397
397
387
370
350
331
315
306
304
306
312
318
323
328
332
334
336
336
336
336
336
336
335
336
337
338
340
341
341
342
342
340
340
341
342
342
342
341
341
341
342
341
342
345
346
347
347
345
345
346
346
345
345
348
351
352
351
348
348
349
350
348
344
342
344
344
344
343
343
341
339
337
338
337
335
333
331
332
334
334
336
333
333
333
334
335
334
333
334
336
336
334
335
335
336
336
335
335
336
336
336
335
334
335
338
341
341
340
340
340
341
340
340
341
342
341
340
341
344
343
341
339
340
340
341
340
336
334
336
337
337
336
335
337
338
337
336
336
336
338
338
337
337
339
344
350
359
369
378
388
396
397
390
374
354
334
318
307
304
304
310
316
321
326
331
333
334
334
334
335
335
334
334
335
336
337
339
340
340
340
340
340
338
340
340
340
339
340
341
342
342
340
340
344
346
347
345
344
345
345
345
345
345
347
349
350
349
347
347
349
349
347
344
342
343
342
342
342
341
338
338
337
337
338
336
333
332
333
333
334
334
334
333
334
334
334
334
334
334
335
335
335
335
335
337
336
335
334
335
336
336
335
335
336
339
342
342
341
342
342
341
341
341
341
341
341
340
341
344
344
341
340
339
340
342
340
336
334
335
336
337
336
336
336
337
337
336
336
337
338
338
337
337
338
342
348
356
366
376
386
394
397
391
377
359
340
320
309
304
305
309
315
321
327
332
334
335
335
336
337
337
336
335
336
338
338
340
342
344
342
342
340
341
342
341
341
340
339
340
341
341
341
341
343
347
347
345
345
345
346
346
345
345
346
348
349
348
347
348
348
348
348
346
344
344
345
344
343
343
341
338
337
337
337
337
334
332
333
334
335
335
334
334
335
335
336
335
336
335
336
335
335
335
336
336
336
335
336
336
337
337
338
337
337
339
341
343
342
342
342
342
341
340
340
341
341
340
340
344
344
342
340
340
341
343
342
337
334
335
337
337
336
336
336
337
337
336
337
337
338
337
336
336
338
341
346
354
364
374
383
391
396
393
380
362
341
324
311
304
303
308
314
320
326
331
333
335
336
336
338
337
336
336
336
337
337
338
341
343
344
344
341
340
341
341
341
340
340
340
341
342
340
340
343
346
347
346
345
345
345
345
344
343
345
350
350
348
348
348
349
349
347
345
342
342
342
342
342
342
341
338
335
336
337
337
334
331
332
334
336
335
333
332
334
335
335
333
333
334
335
335
335
335
336
335
334
335
335
336
337
337
336
336
338
340
342
343
341
341
341
341
341
341
342
343
342
340
340
344
344
342
339
338
340
342
342
339
336
336
337
337
337
336
337
337
336
336
336
337
337
338
338
337
338
340
345
351
362
372
382
390
395
393
382
367
347
327
312
305
304
306
311
318
324
329
332
333
335
337
338
336
335
334
335
337
337
337
340
342
343
341
340
340
341
343
342
340
341
341
341
341
339
340
342
346
346
346
343
344
344
344
343
344
345
349
350
349
347
349
348
347
346
345
342
342
342
341
342
342
342
339
336
335
337
337
334
330
330
332
333
333
332
333
334
335
335
333
333
334
335
334
334
334
335
335
334
333
333
335
336
335
334
335
336
337
339
340
341
341
341
341
340
340
340
341
341
340
339
343
345
343
340
339
340
341
341
339
335
334
335
336
336
335
335
336
336
336
336
336
337
337
336
335
336
340
343
349
359
370
381
389
395
395
386
370
350
330
315
307
303
304
310
317
324
330
333
334
336
337
337
336
335
335
336
338
337
337
339
341
342
342
341
341
341
342
342
341
341
341
340
340
339
339
341
344
346
344
343
343
344
343
343
343
344
347
349
348
347
348
349
349
347
347
344
344
344
343
343
343
343
340
338
338
339
338
335
332
332
333
335
334
332
333
334
335
334
333
333
333
335
335
334
334
335
336
336
335
335
336
336
336
335
335
336
337
338
340
341
342
342
342
341
341
341
342
342
341
341
345
346
344
341
340
340
341
341
340
338
336
337
337
337
336
336
337
337
336
336
337
337
337
336
336
337
340
344
349
357
367
377
387
394
397
391
375
355
335
318
308
305
305
308
315
322
328
333
333
334
336
337
337
335
335
336
337
337
336
338
341
343
342
340
339
341
341
341
340
339
341
342
342
341
340
341
344
345
344
344
344
344
344
344
345
345
346
347
348
348
349
349
349
348
347
345
343
343
342
342
342
342
339
336
336
337
338
335
333
332
333
334
333
332
332
333
335
335
334
334
335
336
335
333
334
335
336
336
334
334
335
336
336
335
334
334
334
336
340
342
342
343
341
341
341
342
342
341
341
341
343
346
345
341
339
340
341
341
340
337
335
335
336
335
335
336
337
337
337
336
337
337
337
336
336
337
340
341
346
353
364
375
384
392
397
391
377
357
337
321
309
304
302
306
313
321
326
330
331
334
336
336
336
334
334
335
336
336
335
337
340
341
342
342
340
340
340
339
338
338
339
340
340
339
340
340
343
345
345
345
345
346
344
344
344
346
348
349
349
350
351
351
349
348
348
348
346
344
343
344
346
345
342
337
337
339
340
337
333
332
334
334
334
333
333
335
335
335
334
335
336
335
336
335
334
335
336
336
336
336
336
337
336
335
335
336
337
338
340
341
342
342
342
341
341
341
341
340
339
340
342
346
345
341
339
341
341
341
340
337
335
335
336
336
337
337
338
337
335
335
336
337
337
336
335
336
337
340
344
352
363
374
382
389
395
395
382
362
341
324
312
305
302
306
312
320
324
328
329
332
334
335
335
334
334
336
336
335
334
336
339
341
341
339
339
339
340
339
339
339
340
340
339
338
339
340
343
344
344
345
345
344
342
342
342
343
344
347
349
348
349
349
349
348
348
347
344
342
341
342
343
344
342
339
336
337
339
337
333
332
333
334
335
334
333
334
334
335
335
336
335
334
334
333
334
335
336
335
335
335
336
336
336
334
334
335
336
336
338
340
340
340
339
338
340
340
341
340
339
340
340
344
344
340
339
340
340
340
339
337
337
336
336
335
336
336
336
335
334
335
336
338
338
336
337
337
338
341
344
351
361
372
381
389
396
396
386
368
347
328
314
307
303
305
311
319
325
328
331
333
336
337
337
335
335
336
337
336
337
338
342
343
341
340
340
341
343
341
341
340
341
341
341
340
340
341
342
345
343
343
343
344
344
344
344
344
345
347
348
348
348
348
348
347
347
346
344
342
342
341
342
343
341
338
336
338
339
337
334
332
333
334
333
332
332
334
335
335
334
334
334
334
334
334
334
334
335
335
335
335
336
337
337
336
335
336
337
337
338
341
342
343
343
341
340
341
342
341
340
340
342
344
345
342
340
340
342
342
341
340
338
337
336
335
335
336
336
336
335
335
336
337
337
336
336
337
338
339
341
348
360
370
379
387
394
396
388
371
351
331
317
307
303
304
310
317
324
330
332
333
335
335
335
335
335
335
335
335
335
336
340
342
341
340
340
341
343
341
339
339
340
340
340
339
338
339
341
344
345
345
346
346
346
344
345
347
347
347
347
349
350
350
349
348
348
347
345
341
340
341
343
344
341
338
336
337
337
336
333
332
332
333
333
332
332
333
334
334
335
333
334
336
335
334
333
334
335
335
334
333
334
335
335
334
335
336
337
336
338
340
342
342
341
339
339
341
342
342
341
341
341
344
345
343
341
340
340
341
341
340
338
338
336
335
336
337
338
338
337
337
337
337
337
336
336
336
338
339
341
347
357
368
377
385
393
397
391
376
355
335
319
309
304
302
308
315
322
326
329
331
335
337
337
335
334
335
336
336
335
336
340
342
342
341
341
342
342
340
339
341
341
342
341
340
340
341
342
344
344
345
346
346
346
346
345
346
347
347
348
350
350
350
349
348
349
349
347
344
342
342
343
344
344
339
337
337
338
338
335
332
333
335
335
335
335
335
336
335
334
334
336
336
335
334
334
335
336
336
335
335
335
335
335
334
335
335
335
335
336
340
343
344
342
340
340
341
341
340
339
339
340
342
344
341
339
338
340
340
341
340
337
336
335
335
335
336
337
338
336
336
336
337
336
335
335
336
336
337
339
345
354
365
373
381
391
397
393
379
359
338
322
310
303
302
306
313
320
325
329
330
334
336
336
334
333
335
336
336
335
335
338
341
341
341
340
341
342
341
340
341
341
342
341
339
339
340
342
344
345
345
346
347
346
344
344
345
345
345
347
350
351
351
349
348
349
349
348
344
342
343
345
345
343
339
337
338
340
340
336
333
333
334
334
333
333
334
335
334
335
335
335
334
334
333
334
335
336
335
334
335
335
336
336
335
335
336
337
337
336
339
341
342
341
340
339
340
341
341
339
339
340
342
344
343
341
341
340
339
339
340
338
336
334
334
336
337
337
336
335
336
337
338
337
336
337
337
337
337
339
343
352
363
372
381
390
397
396
383
364
343
325
312
305
301
305
312
319
324
328
331
334
336
336
334
334
335
336
335
334
335
337
341
341
340
339
340
340
340
339
339
340
341
341
340
340
340
341
341
344
345
347
346
344
343
344
344
344
344
346
348
349
349
348
347
346
347
346
343
342
342
344
344
344
341
338
338
338
338
336
335
335
336
334
333
334
336
337
337
336
336
335
336
335
334
335
335
336
335
335
335
336
336
336
334
335
335
335
335
335
338
341
342
341
340
340
341
341
341
340
340
341
341
343
343
341
340
340
341
339
340
339
337
334
333
333
334
335
335
335
336
336
336
338
336
336
337
337
336
337
341
350
360
370
378
387
395
396
385
367
346
328
316
305
301
304
312
319
323
327
330
333
336
336
335
334
335
335
335
335
335
338
341
341
340
340
341
341
340
339
340
341
340
339
338
338
338
339
340
342
344
345
346
344
343
343
344
344
343
345
348
350
350
349
348
348
349
348
344
341
342
344
345
343
341
338
338
338
337
336
334
334
334
333
333
333
334
334
334
334
334
336
336
335
334
334
335
335
334
334
335
336
336
335
334
335
336
337
336
335
338
341
343
342
340
340
341
341
341
339
339
341
341
343
343
340
340
340
340
340
340
340
337
335
335
335
337
337
336
335
335
336
337
336
336
336
337
338
338
339
343
350
360
370
379
387
396
399
390
374
354
335
319
308
303
303
309
317
322
328
331
334
336
336
335
335
336
337
335
335
335
336
340
341
341
340
342
343
341
340
341
341
342
341
339
339
340
341
340
342
343
345
346
345
343
344
346
345
344
346
349
350
349
347
347
347
349
348
344
341
341
342
343
343
342
339
338
338
337
337
334
333
333
334
334
333
333
334
334
333
333
334
336
336
335
334
335
336
335
334
335
336
336
336
335
335
336
336
335
335
337
341
343
341
339
339
340
341
341
340
340
342
342
343
345
343
341
341
342
342
342
342
339
335
335
335
336
338
337
337
336
337
337
336
336
336
338
339
338
338
341
348
357
367
377
385
395
400
393
377
356
337
321
309
303
302
309
317
322
325
329
332
335
336
335
334
335
336
336
335
336
337
340
342
341
341
342
342
340
339
339
341
341
341
340
340
341
342
341
342
345
347
347
345
344
344
345
345
344
345
348
350
350
348
347
347
348
348
345
342
341
343
345
344
342
339
337
337
337
337
335
333
333
333
332
332
333
334
335
334
334
335
336
335
334
334
334
334
335
334
334
334
336
336
335
336
336
336
335
335
337
340
341
341
340
340
341
342
342
341
341
342
341
342
344
344
343
342
341
340
342
341
340
337
336
336
337
338
337
336
337
337
338
337
336
336
338
338
337
337
339
345
354
364
373
382
391
397
392
378
360
341
324
310
304
301
306
312
318
323
327
332
335
336
335
335
335
336
335
334
334
335
338
340
340
340
341
341
341
339
339
340
340
339
339
339
339
339
339
341
344
346
346
344
343
344
344
345
344
344
347
350
351
350
349
348
349
349
346
343
342
343
344
343
343
340
339
339
338
337
336
335
334
334
334
334
335
335
336
336
335
335
334
333
332
334
335
336
336
335
335
336
337
337
336
336
337
337
336
335
337
340
342
342
341
341
342
342
341
339
340
342
342
341
343
344
343
342
341
340
340
341
339
337
335
335
337
338
336
335
335
336
336
336
335
335
336
336
335
336
340
345
352
361
371
381
391
397
395
382
363
343
326
312
304
302
306
312
319
324
328
331
332
334
335
335
337
337
337
335
335
336
338
341
343
341
341
340
340
340
340
341
341
340
338
339
340
340
339
340
343
345
345
344
343
344
345
346
344
343
346
350
352
351
349
348
350
350
348
345
342
343
344
344
343
341
339
338
338
338
337
335
334
334
334
334
335
336
335
334
335
335
336
335
333
333
334
334
334
334
335
336
336
336
336
336
337
337
336
335
335
338
341
341
339
339
340
341
340
339
340
341
342
342
342
343
342
342
340
340
340
341
340
336
334
335
337
337
336
335
336
337
337
336
336
335
336
336
336
336
338
342
350
359
369
379
388
396
395
385
369
350
331
316
306
303
305
311
316
322
327
331
333
334
335
335
336
336
335
334
335
336
337
340
340
340
341
342
341
339
340
340
340
340
340
340
341
341
340
339
342
345
346
345
344
345
345
346
344
342
345
349
350
348
347
347
347
348
347
343
341
342
343
343
343
342
339
337
336
337
337
336
335
334
334
334
336
336
334
333
333
334
335
336
334
334
335
336
335
333
334
336
337
336
335
335
336
336
336
336
336
340
342
341
340
340
341
340
340
340
340
340
341
341
342
344
342
340
339
339
340
341
341
337
334
334
336
336
335
335
336
337
337
336
334
335
336
337
337
337
339
342
347
357
368
377
388
395
396
390
373
354
335
318
306
302
303
309
315
321
326
330
332
334
335
335
336
337
336
335
335
335
337
339
340
340
342
342
341
340
340
341
341
340
338
339
340
341
340
340
343
346
346
346
344
344
345
345
345
343
345
349
350
348
346
346
348
349
348
344
341
342
343
344
344
342
339
337
336
336
337
335
333
333
333
333
334
334
334
333
334
335
336
334
334
334
335
335
335
334
334
336
336
335
335
335
336
336
335
335
336
340
342
341
340
340
342
343
342
341
341
343
343
342
342
344
343
342
341
340
341
341
342
338
335
335
337
337
337
336
336
336
336
336
335
335
336
337
336
336
338
343
348
356
366
376
386
394
397
391
376
358
339
321
308
302
302
308
313
319
324
331
333
336
335
335
335
336
336
335
335
337
338
339
340
341
342
342
341
339
339
340
341
341
340
340
341
342
341
340
343
346
347
346
345
345
344
345
344
344
345
349
350
349
347
347
348
348
347
344
342
343
342
343
343
342
340
338
338
337
337
336
335
333
333
333
334
334
334
334
334
336
336
334
333
334
336
335
334
334
334
334
334
334
334
334
335
336
336
334
335
337
341
341
341
342
342
342
341
341
341
341
341
341
342
345
345
342
341
340
341
342
341
339
336
336
337
338
337
336
336
336
337
336
336
336
338
337
336
337
337
341
346
354
363
374
384
392
396
392
380
362
342
324
309
303
302
306
311
317
323
328
331
333
334
334
336
336
335
335
335
336
337
339
340
341
341
341
340
339
339
340
340
339
338
339
340
342
340
340
341
344
346
345
343
342
343
344
343
343
344
348
351
350
349
348
349
351
349
346
344
343
343
343
343
342
342
340
338
337
338
337
335
333
333
334
335
335
336
334
335
335
334
333
334
334
336
336
336
335
335
335
336
335
334
334
336
337
335
334
334
335
340
341
340
340
339
340
340
340
340
341
341
341
341
344
346
343
340
339
340
341
341
339
335
334
336
336
336
336
337
337
336
336
336
337
337
337
336
335
336
340
345
352
360
371
381
390
397
395
384
366
346
328
312
304
302
305
312
317
323
329
332
333
335
336
336
336
335
334
334
336
336
336
340
340
340
340
339
339
339
340
340
340
340
341
341
341
340
340
341
345
348
345
343
343
346
346
345
344
345
349
352
352
350
349
349
350
349
346
344
343
343
343
343
343
343
339
337
336
337
338
337
334
333
333
336
337
336
336
337
337
337
336
334
334
335
336
335
334
334
336
336
335
334
335
336
337
336
336
337
338
340
342
342
341
341
341
340
339
340
342
342
341
340
342
343
341
339
338
339
341
341
338
334
334
335
337
337
336
336
338
337
336
335
336
337
337
336
335
337
341
344
349
358
369
381
390
397
396
387
371
351
331
314
305
303
305
309
315
322
328
332
333
335
336
336
336
335
335
335
337
337
337
339
341
342
343
341
340
340
340
341
340
339
340
342
342
341
339
340
344
346
345
344
343
343
345
344
344
343
347
349
350
346
348
348
348
348
346
344
343
343
342
342
344
342
339
337
336
337
337
335
333
332
332
333
333
333
333
334
335
335
335
333
334
336
335
335
335
335
336
337
336
335
335
336
336
334
335
336
337
340
342
342
341
341
342
341
341
341
343
342
341
340
342
346
343
340
339
340
342
341
340
336
334
335
336
335
335
336
337
337
335
335
335
336
336
336
336
336
338
342
348
356
368
378
387
394
396
389
374
355
334
317
307
305
306
310
315
321
327
331
332
333
335
336
336
335
334
336
338
338
337
339
342
343
343
341
341
341
340
340
340
340
340
341
342
341
339
340
344
346
344
344
345
344
344
343
343
344
346
348
348
348
347
348
349
348
347
344
343
344
344
343
343
344
340
337
336
337
338
335
332
332
333
334
334
333
333
333
335
335
334
334
334
334
336
334
333
333
335
336
335
334
334
335
336
336
335
336
337
339
340
340
341
341
341
340
339
341
341
341
341
340
342
346
344
341
339
340
341
342
341
337
335
335
336
336
336
337
337
338
337
336
336
338
339
338
337
337
339
343
347
355
365
376
385
393
397
393
379
360
339
321
310
304
304
307
313
319
325
330
332
333
335
336
336
335
334
335
336
339
336
338
342
343
341
340
339
340
340
340
339
339
339
341
341
340
339
340
343
346
346
345
344
345
345
344
344
343
346
349
350
349
348
348
348
347
347
345
343
343
342
342
342
343
341
338
336
338
339
337
333
332
333
334
334
334
334
333
335
335
334
333
335
336
335
334
333
334
336
336
335
334
335
336
336
336
335
335
336
338
340
341
342
343
343
341
341
341
342
342
341
341
342
346
345
341
339
339
340
341
340
337
335
335
335
335
335
336
335
335
334
333
334
335
335
335
335
336
336
339
343
351
362
373
382
390
395
393
381
363
343
325
312
305
303
305
311
318
325
330
331
333
335
335
336
335
335
336
337
337
336
337
340
342
341
340
339
339
340
340
339
338
340
341
340
339
339
340
343
345
345
344
345
346
346
345
344
345
346
349
349
349
349
348
348
348
348
346
343
343
343
342
343
343
342
339
337
337
339
337
334
333
335
335
335
335
334
335
334
334
334
334
335
335
335
334
334
334
335
335
334
334
334
336
336
334
333
334
335
336
338
339
340
339
339
339
339
339
340
341
340
340
340
343
343
340
339
340
339
339
339
337
335
335
336
335
335
336
337
337
337
336
335
336
337
337
337
337
337
340
344
351
361
371
382
390
396
395
384
368
347
327
313
305
302
303
310
317
324
329
331
332
336
336
336
335
335
336
336
337
335
337
341
343
343
341
340
341
342
342
341
340
340
342
343
342
341
341
343
346
346
346
347
346
345
344
343
343
345
348
350
350
349
350
350
348
348
347
345
344
343
342
344
344
343
340
338
339
340
339
336
334
334
335
335
334
335
335
335
335
334
334
334
336
335
334
334
335
336
336
335
334
335
336
336
335
335
335
336
335
338
340
341
341
340
339
338
339
340
340
340
339
339
343
343
340
338
338
340
342
341
339
336
335
334
334
334
335
336
336
335
334
335
336
338
337
336
337
338
340
342
349
359
370
380
388
395
397
389
372
351
332
317
307
303
304
310
317
323
328
331
332
336
338
338
337
336
337
337
337
337
337
340
343
344
341
341
341
341
341
340
339
340
341
341
341
340
341
342
345
346
346
346
346
345
344
343
344
345
347
348
349
349
349
349
348
347
347
345
343
342
343
344
344
342
339
337
338
340
339
334
332
333
334
334
332
333
335
335
336
334
334
334
336
336
336
335
336
336
336
335
335
335
336
336
336
336
336
338
336
337
339
341
343
342
340
339
339
340
340
340
340
340
344
344
342
340
340
342
341
340
339
337
336
335
334
334
335
337
336
335
335
336
336
336
336
337
337
337
338
341
347
357
368
378
385
393
396
391
376
355
335
320
310
305
303
307
315
322
327
330
331
334
336
337
337
336
336
337
337
336
336
340
341
341
340
340
340
341
341
340
339
340
340
339
339
339
340
342
345
346
346
346
347
346
345
345
345
345
346
348
349
349
349
349
349
348
347
345
343
342
341
342
344
343
340
336
336
337
338
336
333
333
334
334
334
334
334
336
336
335
334
335
336
336
334
334
335
336
337
335
335
336
336
336
336
335
337
337
337
337
340
342
344
342
341
340
342
342
342
341
341
342
344
346
344
340
339
339
340
340
340
339
337
337
336
336
337
336
336
335
335
336
337
338
337
337
337
337
339
341
346
355
365
375
384
393
397
393
379
359
338
321
309
303
301
305
312
319
325
328
330
333
335
335
334
333
334
335
335
334
335
337
340
341
341
339
340
341
340
339
339
340
341
340
339
340
341
341
344
345
346
346
346
345
345
345
345
346
346
349
350
351
350
349
347
346
347
347
344
341
341
342
344
344
340
337
337
338
339
335
333
333
334
333
333
333
334
335
335
334
334
335
335
335
334
335
335
335
335
334
333
334
335
335
336
335
335
335
336
336
338
341
343
342
340
339
341
342
342
340
339
340
344
347
344
341
339
340
341
341
341
340
337
336
335
335
337
337
338
337
337
338
338
336
335
336
338
338
338
339
343
353
364
373
381
390
397
396
383
365
344
325
313
305
303
305
311
319
324
328
331
333
336
335
334
334
334
335
335
335
335
337
340
341
339
338
339
339
339
337
337
338
339
339
338
338
339
340
340
343
343
344
345
344
343
343
344
345
344
346
349
350
350
348
347
347
348
346
343
341
342
342
343
342
340
337
337
338
338
335
333
332
336
334
334
334
334
335
335
333
334
334
335
335
335
334
335
336
335
335
335
336
336
336
335
334
335
336
336
335
337
341
342
341
340
340
341
342
341
340
340
340
341
345
344
342
342
342
341
340
341
340
338
336
335
335
336
337
338
336
336
336
336
337
336
336
337
338
338
339
343
351
362
373
381
389
396
397
385
367
347
329
316
307
303
305
312
319
324
327
330
333
337
337
335
335
336
337
336
336
335
338
341
342
340
340
341
341
341
339
338
340
340
340
339
339
339
340
342
344
345
345
344
344
344
344
345
346
345
347
348
350
350
350
349
348
348
348
344
341
341
343
345
344
341
338
337
339
339
337
334
333
334
334
334
334
335
335
335
334
336
336
336
335
334
335
336
336
334
333
334
335
336
336
336
336
337
337
337
337
339
341
342
342
341
340
341
342
341
341
341
340
341
343
343
341
340
341
341
340
340
339
336
334
333
334
336
337
336
336
335
336
337
336
335
336
337
337
336
337
340
347
357
367
377
386
394
398
389
373
352
333
317
306
303
305
311
317
323
327
331
334
337
337
337
336
337
337
336
335
336
337
341
343
342
341
341
341
341
340
340
341
342
341
340
340
341
342
342
343
344
346
347
345
344
343
344
345
345
346
348
349
350
348
347
348
349
348
345
342
343
344
344
343
341
338
337
338
338
338
335
334
334
334
333
334
335
335
335
334
334
334
335
335
334
334
335
335
335
334
334
335
336
336
335
334
336
337
338
336
337
341
343
342
340
340
341
341
340
339
339
340
341
342
344
343
341
340
340
339
340
340
338
335
334
335
336
336
335
335
336
337
337
337
337
336
337
336
336
337
341
347
356
366
375
385
394
398
392
376
356
336
320
308
301
301
307
315
320
324
328
330
333
335
335
335
336
336
336
335
336
337
340
341
340
339
339
340
339
339
340
341
341
340
340
339
341
341
340
343
345
346
346
345
343
343
344
345
344
345
347
349
349
348
347
347
347
348
345
343
342
343
344
343
342
339
338
339
338
337
335
333
333
333
333
334
336
336
335
334
334
335
336
335
333
334
335
336
336
334
334
335
336
336
336
336
337
337
337
336
337
341
343
342
341
341
342
342
341
341
341
342
342
344
347
344
341
340
340
340
340
341
339
336
335
336
336
337
336
335
337
337
339
338
337
337
338
338
337
336
339
346
356
366
374
383
393
398
394
378
360
342
325
310
303
301
305
314
320
324
328
331
335
336
335
334
335
336
336
336
336
336
339
342
341
340
340
341
340
339
339
340
341
340
339
339
340
341
341
342
343
345
345
344
343
343
344
344
344
344
347
349
349
348
347
348
350
350
346
342
342
342
343
343
341
338
337
337
336
336
335
333
333
332
332
333
334
335
335
334
334
335
336
335
334
334
335
336
336
335
334
335
336
336
335
334
335
338
336
336
336
339
341
341
340
340
340
341
341
340
340
342
342
342
343
343
341
340
340
340
340
341
339
336
334
335
337
338
337
335
335
336
337
336
335
336
337
338
338
337
340
344
353
362
372
381
390
397
394
382
364
346
327
312
304
302
305
311
317
321
327
331
333
334
335
335
335
336
335
335
334
335
337
340
340
340
340
341
341
340
340
341
341
341
340
340
341
342
341
342
343
345
345
346
344
344
346
347
346
345
347
350
351
350
349
349
350
350
347
343
342
343
344
343
343
342
339
338
338
337
336
335
334
334
333
332
333
334
333
332
332
333
333
333
333
334
335
336
334
334
334
334
334
334
334
335
335
336
336
335
335
339
341
341
339
339
340
341
341
341
341
342
341
341
342
343
342
341
340
340
340
341
340
336
334
335
337
338
336
335
335
336
338
337
336
337
338
338
337
335
338
343
351
360
370
380
389
396
396
386
369
349
331
315
305
302
304
311
316
321
327
331
333
335
334
334
335
336
335
335
335
336
338
340
341
342
341
341
340
340
340
340
341
340
339
340
341
341
341
341
344
346
347
346
345
344
346
345
345
344
347
349
350
349
348
348
349
349
347
343
342
344
345
343
342
341
340
339
338
338
337
335
334
334
334
333
334
335
335
334
334
335
335
335
335
335
336
337
335
334
334
335
336
334
334
335
336
337
337
336
336
339
342
341
341
341
342
342
340
339
339
341
341
340
342
343
342
340
339
338
339
340
340
336
334
334
335
336
336
335
335
336
337
337
336
337
337
338
336
335
339
343
351
359
369
379
390
399
399
390
374
355
336
320
309
305
305
310
317
322
327
332
334
336
336
337
337
337
337
336
335
336
338
342
341
342
342
343
342
341
340
341
342
341
339
340
341
342
342
341
343
346
347
347
344
344
345
346
345
343
346
350
350
349
347
346
347
347
347
343
341
341
342
341
342
343
340
338
337
337
337
335
333
332
332
333
334
336
335
333
333
334
334
333
333
333
335
335
334
334
334
335
335
334
334
334
336
336
335
333
334
337
340
341
340
340
340
340
339
339
339
340
341
340
341
344
343
341
338
338
339
340
340
337
334
334
335
336
335
334
334
335
335
335
335
335
337
337
336
336
338
342
348
356
366
376
386
395
397
391
376
358
339
321
308
303
304
308
315
320
326
331
333
334
335
335
335
336
336
336
336
338
339
340
341
341
341
341
339
338
340
340
340
340
339
339
340
340
339
338
341
346
347
345
343
344
345
345
344
343
344
348
350
348
347
347
348
350
349
345
343
343
344
343
342
342
340
338
337
336
337
336
334
332
333
334
335
335
334
333
333
335
336
335
335
335
336
336
335
335
335
336
336
335
336
336
337
337
336
336
336
338
341
341
341
341
341
341
340
340
340
341
342
340
341
345
345
343
341
340
341
342
342
338
336
336
337
338
336
335
336
336
338
336
336
337
337
337
336
335
336
341
346
354
363
373
383
392
396
392
380
362
342
323
309
303
302
306
311
318
323
329
332
334
335
336
336
337
336
335
335
335
336
337
339
341
341
341
339
339
339
341
342
341
340
340
340
341
341
340
342
346
345
344
343
343
344
345
344
343
344
349
350
349
347
347
348
349
348
345
344
343
344
343
342
343
342
338
336
338
339
338
335
332
333
334
334
334
334
333
333
336
335
334
334
334
335
336
336
335
335
335
336
336
336
336
336
337
336
335
336
338
341
342
341
341
342
342
342
342
342
344
345
342
342
344
345
343
341
340
341
342
343
339
336
335
335
336
336
335
336
338
337
335
335
336
337
338
338
336
337
342
345
352
361
371
381
390
395
394
383
366
346
327
312
305
303
305
311
318
323
329
332
332
334
336
337
338
337
335
335
337
337
338
339
339
340
340
339
339
338
339
340
339
339
339
340
341
339
338
340
345
347
346
345
345
346
348
346
345
346
349
351
351
350
350
349
349
348
346
344
343
344
343
342
344
343
340
338
336
338
338
336
334
334
335
335
336
335
334
334
335
336
336
335
335
336
337
335
334
335
336
337
336
335
335
336
336
334
334
334
337
339
340
339
340
340
340
339
339
339
340
341
340
340
343
344
342
339
338
340
341
342
340
336
336
337
337
337
336
336
336
337
336
336
336
337
338
337
336
337
340
344
350
359
370
380
390
396
396
387
372
352
332
316
307
304
306
310
315
321
327
331
332
334
336
336
335
334
333
334
335
336
336
338
340
341
341
339
339
338
339
340
339
339
339
340
340
339
338
339
343
346
346
345
345
345
345
344
344
344
348
350
350
349
349
350
350
349
346
343
343
343
342
342
343
343
341
338
336
337
338
336
333
332
333
334
335
334
334
335
335
335
333
333
335
336
336
335
334
334
336
336
335
335
335
336
336
335
333
334
334
337
338
339
339
340
340
339
339
339
340
340
339
338
342
345
342
339
337
338
339
340
339
336
335
335
335
335
334
334
335
336
336
336
337
337
336
334
334
335
339
342
348
356
367
377
386
394
396
389
374
355
335
318
308
304
304
307
314
321
327
332
333
335
337
337
336
335
334
335
337
338
337
339
340
340
340
339
339
340
341
341
340
340
340
340
341
339
339
341
345
347
346
344
344
346
346
345
343
343
346
349
350
349
349
348
348
348
347
344
343
342
342
341
342
343
340
338
337
338
339
337
334
333
334
335
336
335
334
334
336
335
334
333
333
334
335
334
334
335
336
336
335
334
334
336
337
335
334
335
336
338
340
340
340
340
340
339
338
339
341
340
339
339
342
346
343
340
338
339
341
341
341
337
336
336
336
336
336
335
336
336
335
335
336
337
337
336
336
336
338
341
347
355
366
377
386
394
397
393
379
361
339
321
309
304
303
307
313
319
326
331
332
334
336
337
336
335
334
335
337
337
336
339
341
343
342
340
339
340
341
341
340
340
340
341
340
340
340
341
343
345
345
344
343
344
344
343
344
343
345
348
349
348
348
348
348
348
348
345
343
342
342
342
343
344
341
338
336
338
340
337
334
332
333
334
336
335
334
335
336
336
334
334
335
336
336
334
333
335
336
336
335
335
336
336
337
335
335
336
337
339
341
342
341
341
341
340
339
340
342
342
341
341
341
345
345
342
340
340
341
342
341
339
337
336
337
336
336
336
337
337
336
335
335
337
337
336
336
336
338
342
345
352
363
374
384
391
397
396
382
363
342
323
310
305
304
306
312
319
325
329
331
333
336
336
336
335
335
337
338
338
336
336
339
341
341
340
339
340
341
340
339
339
341
342
341
340
339
340
344
345
345
344
344
345
345
344
343
344
345
348
350
349
350
350
349
347
347
346
345
343
342
342
343
344
342
338
337
338
338
337
334
332
333
335
335
334
333
334
335
335
334
334
335
336
336
335
334
334
335
335
335
335
335
336
336
336
336
336
337
337
338
340
342
342
341
339
339
341
343
343
341
340
341
345
345
341
339
340
341
341
341
338
337
337
336
335
334
336
335
336
335
336
336
336
336
336
336
336
337
340
343
351
361
372
381
390
396
395
385
367
347
326
313
306
303
305
311
317
324
328
331
332
335
336
337
334
334
335
336
336
335
336
339
341
340
339
339
339
340
340
339
338
340
342
340
339
339
339
341
344
344
344
344
344
344
344
344
345
346
348
350
350
351
351
350
349
348
347
346
345
344
343
345
345
344
339
338
339
340
340
336
334
335
335
335
334
334
334
335
335
334
333
334
336
337
335
334
335
336
336
334
333
335
336
336
336
336
338
337
337
338
340
342
343
342
340
340
340
341
341
340
339
340
344
345
342
340
340
341
341
340
339
336
336
335
336
335
336
337
337
336
335
336
339
339
338
337
337
338
340
342
348
359
370
379
387
394
396
388
371
350
331
316
307
302
302
308
316
323
328
330
331
333
335
336
335
334
334
336
336
336
337
340
342
342
341
341
341
342
341
340
339
340
341
340
340
339
340
341
345
344
343
343
345
345
343
342
343
345
347
348
349
348
349
349
348
348
348
346
344
341
341
342
343
343
339
337
338
339
339
335
334
334
334
334
334
334
334
336
335
334
333
334
335
335
334
334
334
336
336
335
335
335
336
336
335
335
334
336
336
337
340
342
342
341
340
339
340
341
340
340
340
341
344
344
341
338
339
341
341
340
339
337
336
336
336
337
337
337
336
335
335
336
337
336
336
335
336
337
339
342
347
357
368
378
386
394
397
392
377
357
336
320
310
304
303
308
315
322
327
331
333
335
337
337
336
335
335
336
337
336
337
340
342
341
339
338
339
341
341
339
339
339
340
340
339
338
339
341
343
345
345
345
345
345
344
344
345
346
347
348
349
350
350
349
347
347
348
345
343
342
343
344
345
345
340
337
338
340
339
335
332
332
334
336
335
334
334
334
335
334
334
334
334
335
334
334
335
336
336
334
334
336
337
337
335
334
334
336
336
336
339
342
342
341
340
340
341
342
341
341
340
341
343
345
342
340
340
341
340
339
339
337
335
335
335
336
337
336
336
336
336
336
337
337
336
335
335
337
338
341
346
355
366
375
383
391
397
393
380
361
339
322
311
305
303
307
314
321
326
329
331
334
336
336
335
335
337
337
336
335
335
339
342
342
341
340
341
342
341
339
339
340
341
341
340
340
340
341
343
345
344
344
345
344
343
343
344
346
347
349
349
349
349
348
347
347
347
345
342
340
341
343
344
344
339
336
337
338
338
335
333
334
335
335
334
333
335
336
335
333
333
334
336
336
335
335
335
336
336
335
334
335
336
336
335
335
336
337
337
336
339
343
345
343
341
340
341
342
344
343
342
341
342
345
344
341
340
341
340
340
340
339
336
336
335
335
336
336
336
334
333
334
336
336
336
336
336
338
338
339
344
352
363
373
381
389
397
395
382
363
342
325
313
304
302
304
311
318
324
328
330
334
336
337
335
335
336
337
336
335
335
338
342
342
341
339
340
341
340
339
339
340
340
340
339
338
338
340
342
344
345
345
345
344
343
342
344
345
345
348
350
352
351
349
347
349
349
348
345
343
342
344
344
343
341
339
338
339
339
338
334
333
334
335
334
333
335
336
336
335
334
335
335
336
335
335
335
336
338
337
335
336
337
337
337
337
337
337
336
335
338
342
342
340
339
339
340
341
341
341
341
341
342
344
343
341
341
341
341
340
340
340
337
335
333
334
336
337
337
336
336
336
337
337
336
336
336
337
337
339
342
350
361
372
381
388
395
396
385
367
347
329
315
306
302
303
309
317
322
326
329
331
334
335
334
335
336
336
336
335
335
337
341
342
340
339
340
341
340
339
339
339
341
341
340
339
339
339
341
343
345
346
347
345
344
344
345
346
346
347
349
351
350
349
348
349
350
349
345
343
343
343
345
344
342
339
339
340
339
338
335
334
334
334
333
334
336
336
335
334
334
336
336
335
335
335
336
336
336
335
335
336
338
338
336
336
336
337
337
335
337
341
343
342
340
339
340
341
341
341
341
341
342
344
344
341
339
340
340
339
339
339
337
335
334
335
336
337
337
336
335
336
338
337
336
338
338
338
338
339
343
350
360
369
378
387
396
398
389
373
353
334
317
305
301
301
308
315
320
324
329
331
335
336
335
334
335
336
336
334
334
335
339
340
339
339
340
341
340
338
338
339
340
339
339
338
339
340
340
342
344
345
347
345
345
344
344
345
344
346
348
350
349
348
347
348
350
349
345
342
341
342
343
343
342
338
338
339
338
337
335
333
333
333
332
332
334
334
334
333
333
334
335
336
335
335
335
336
335
335
335
335
335
336
335
334
335
336
336
335
336
340
342
341
339
339
340
341
341
340
340
342
343
343
343
342
341
340
340
339
339
339
337
335
333
334
335
335
335
335
335
336
335
335
335
335
336
336
336
337
341
347
358
368
377
386
394
398
392
376
357
337
321
309
304
303
308
315
321
325
329
332
335
336
336
336
336
336
335
335
335
337
340
341
340
339
340
341
340
339
339
340
340
340
339
340
341
341
341
343
346
347
346
345
344
344
345
345
345
346
348
350
351
348
347
347
348
349
345
342
341
341
342
342
342
339
337
337
337
337
336
334
334
334
333
333
334
335
334
333
334
335
336
335
334
334
335
335
336
334
336
338
338
336
335
334
335
337
336
336
337
341
342
342
340
340
341
342
341
340
341
342
342
342
344
343
342
341
340
339
339
341
340
336
335
335
336
338
338
337
336
337
337
337
336
336
337
337
337
339
341
346
355
365
374
383
392
398
395
380
362
342
325
311
304
302
307
315
320
324
330
333
335
336
336
335
336
337
337
337
337
338
340
341
341
341
342
342
341
340
339
341
341
341
340
340
341
342
341
342
345
346
346
345
344
344
344
345
344
344
347
350
350
349
347
348
349
349
346
343
342
343
343
342
341
340
338
339
337
337
336
333
333
332
332
333
334
335
334
333
333
334
334
334
334
334
335
336
335
334
335
336
336
335
335
335
336
336
335
334
335
339
341
340
339
340
341
341
342
340
339
340
342
342
343
343
342
341
340
339
339
340
339
335
334
335
336
337
337
336
336
336
339
336
335
335
336
337
336
336
340
345
354
362
370
380
390
398
396
381
364
345
327
312
305
302
305
311
316
322
328
332
333
334
334
335
336
337
336
335
335
336
338
340
341
341
341
341
340
340
340
342
344
342
340
340
341
341
341
342
344
346
347
345
344
344
346
346
344
343
347
350
351
348
347
347
347
348
346
342
341
342
343
343
341
340
338
338
337
336
336
334
333
333
332
332
333
334
334
333
333
334
335
334
333
333
335
335
335
333
335
335
336
335
335
335
335
335
335
334
335
339
341
340
338
338
340
342
342
340
340
341
341
340
344
343
343
341
341
340
341
342
341
337
334
334
335
335
335
336
336
337
336
336
335
335
336
336
337
337
340
344
351
361
370
380
390
398
397
386
369
350
331
315
306
303
305
312
318
322
327
331
334
335
335
335
335
336
336
336
336
337
338
340
341
340
340
340
340
339
339
339
340
340
339
339
341
342
341
342
344
347
347
345
344
344
346
346
345
344
345
349
351
350
348
348
349
350
348
344
342
343
343
343
343
343
341
339
339
339
338
336
335
333
333
334
335
335
334
334
333
335
335
334
334
334
335
336
335
335
335
336
337
336
336
336
336
335
336
335
335
338
341
341
340
341
341
341
339
340
340
341
342
341
341
343
342
341
339
338
339
340
340
336
333
334
335
336
335
334
335
336
336
336
335
337
338
339
337
336
338
343
350
358
367
377
387
395
397
390
374
354
334
317
306
303
304
308
315
320
326
331
333
335
334
334
334
335
335
335
335
336
337
339
340
341
341
342
341
340
340
341
342
341
341
340
341
342
342
340
343
347
347
346
345
345
345
346
343
343
345
349
350
350
348
349
350
350
348
345
342
344
344
343
342
342
341
339
338
338
338
336
334
335
334
334
335
335
334
333
333
335
335
335
335
335
335
336
335
334
334
336
337
335
334
335
335
336
335
335
336
338
340
340
340
339
340
341
340
340
341
342
341
340
341
344
344
341
340
339
340
342
342
337
334
334
335
335
334
336
336
336
337
336
335
336
338
337
335
336
338
341
347
354
365
375
385
394
397
391
377
360
339
321
308
303
304
309
315
321
326
331
333
333
334
336
337
338
336
335
336
337
338
339
340
340
341
341
340
340
340
341
341
340
340
341
341
341
340
340
342
345
346
345
344
343
344
344
343
343
344
348
351
350
349
348
348
347
347
344
342
343
343
342
343
343
341
339
337
337
338
338
335
333
333
334
335
335
333
332
334
335
335
333
333
334
336
335
334
334
336
336
336
335
335
335
336
335
335
335
336
337
341
342
341
340
341
341
340
340
341
341
343
341
341
344
344
341
339
339
339
341
340
337
335
334
336
336
335
335
336
337
337
335
335
337
338
338
337
337
339
342
347
354
364
375
386
395
398
395
383
365
344
325
311
305
304
307
314
321
326
331
333
333
335
338
337
336
335
335
336
338
337
337
340
341
342
342
340
340
340
341
341
340
340
340
341
341
339
338
341
345
347
345
344
344
345
346
345
343
345
349
351
349
347
347
348
349
348
346
343
342
342
342
342
342
341
339
337
337
338
337
335
333
333
334
335
335
334
333
333
335
335
334
333
333
335
334
335
334
335
336
336
335
335
336
337
336
335
335
337
338
340
341
342
341
341
341
340
340
341
341
341
340
340
344
345
343
341
340
341
341
341
338
336
337
337
338
335
335
336
337
338
337
336
337
339
339
337
338
338
342
345
353
362
373
384
392
396
395
384
367
347
327
312
305
303
305
310
316
323
329
332
333
335
335
336
337
336
335
335
336
337
338
339
340
341
342
341
341
342
342
341
339
339
340
342
341
339
338
340
344
347
345
344
344
346
345
344
343
344
347
350
348
347
347
348
347
347
346
344
344
344
343
342
343
342
339
337
336
337
336
334
333
332
333
334
334
333
333
334
336
335
334
334
335
337
337
335
334
335
336
337
336
335
337
337
337
335
335
336
337
340
341
341
341
342
341
340
340
340
341
340
340
340
343
345
342
340
339
340
341
341
338
334
334
336
336
336
336
336
338
338
336
336
337
339
338
337
337
338
341
344
350
359
370
381
389
396
397
389
373
352
331
314
305
303
304
309
316
322
327
330
332
335
336
336
335
334
333
335
337
337
337
339
340
341
340
338
338
339
340
340
340
339
339
341
341
341
340
341
344
345
344
343
344
346
344
343
342
344
347
349
349
348
349
350
349
348
346
343
343
342
342
342
342
343
340
338
338
340
338
334
332
332
334
335
335
334
333
334
335
335
333
332
334
335
336
335
334
335
336
336
336
336
336
337
336
335
335
336
338
340
341
341
341
342
341
341
340
342
342
341
340
340
342
345
343
340
339
340
341
340
339
336
335
337
337
336
336
338
339
338
337
337
337
338
338
337
337
338
340
342
347
357
369
379
387
394
397
391
375
356
335
319
308
303
303
307
314
321
328
332
332
334
337
338
337
336
335
335
337
337
336
338
340
341
341
340
340
340
340
339
339
340
342
342
341
339
338
340
344
346
345
343
344
345
345
344
344
345
347
350
350
348
349
349
349
348
347
346
344
343
342
344
343
344
341
338
337
338
338
335
333
332
333
334
333
333
333
334
334
335
334
333
334
335
335
335
335
335
337
335
334
335
336
337
335
334
334
335
336
337
340
341
341
341
341
340
340
341
340
339
338
338
341
345
343
340
339
341
341
341
340
337
335
336
336
336
336
335
337
337
336
336
336
337
336
335
335
336
338
341
346
354
365
375
384
392
396
392
379
360
339
321
310
305
303
305
311
319
326
330
331
333
336
338
337
335
334
335
336
336
335
338
341
342
341
340
340
340
341
341
340
341
340
341
340
340
341
342
344
346
345
345
346
347
346
344
344
345
348
351
350
350
349
349
348
347
347
346
344
342
341
341
343
344
340
337
338
338
339
337
334
333
334
335
335
334
334
334
336
335
334
334
335
335
335
335
336
336
337
337
336
336
336
337
337
336
335
336
337
338
341
341
341
341
340
342
341
341
343
342
341
341
342
346
345
341
339
339
340
340
339
337
337
337
336
335
335
336
337
337
336
335
336
338
337
336
336
337
338
341
345
354
365
376
384
391
397
394
383
363
341
323
311
305
304
306
312
319
326
330
331
333
336
337
337
336
336
337
337
337
336
338
341
343
343
341
341
342
343
343
341
340
340
341
341
341
341
342
343
345
346
345
346
347
346
345
344
345
346
348
348
348
348
348
348
347
348
346
344
343
342
342
343
343
341
337
336
337
338
335
333
332
333
334
335
334
333
334
335
335
336
335
336
336
336
335
334
335
336
336
335
335
336
336
335
334
334
335
336
336
338
341
342
341
341
340
339
340
341
342
339
339
341
345
344
341
339
340
342
341
339
338
338
336
335
335
336
336
337
337
337
336
336
338
337
336
337
337
338
340
344
352
362
372
380
387
395
395
386
368
347
329
315
307
303
304
310
318
325
329
331
333
336
337
336
335
335
336
337
337
335
336
340
343
341
340
342
343
341
340
339
339
340
341
341
340
340
341
343
345
345
346
346
347
346
345
344
345
346
348
351
350
349
348
347
347
347
345
343
341
341
342
343
343
341
337
336
337
337
337
333
332
333
333
333
332
333
334
334
334
333
333
334
334
334
333
334
335
336
334
334
335
335
335
334
333
333
336
337
335
337
339
340
340
339
338
339
341
341
340
340
339
340
343
344
341
339
339
341
340
339
338
336
335
335
334
335
336
336
337
335
335
337
338
338
336
337
338
339
341
342
349
360
370
380
387
396
398
389
371
351
331
316
307
303
303
309
317
324
328
330
331
335
337
337
336
336
337
337
336
335
334
338
342
341
340
340
341
342
341
340
341
342
343
343
342
340
341
343
345
346
345
345
345
345
344
345
346
346
347
348
348
350
349
348
347
347
347
345
343
342
342
343
343
343
340
338
338
339
339
336
334
334
335
334
334
334
335
335
335
334
334
334
335
335
334
334
336
336
338
337
337
337
337
336
335
335
337
338
336
337
340
342
342
341
339
339
340
341
341
340
340
341
343
345
344
341
342
341
341
339
340
338
336
335
335
337
338
337
335
336
336
337
338
338
337
337
338
338
339
341
347
357
368
378
386
394
398
392
376
356
336
319
308
303
303
307
315
322
326
329
331
334
337
336
335
334
335
336
335
334
335
338
341
341
340
339
339
339
339
339
339
340
339
340
339
340
341
341
343
345
346
346
346
345
344
344
346
346
348
350
350
350
349
349
348
348
348
346
343
342
342
343
344
343
341
338
339
340
339
335
333
333
335
335
335
336
335
334
333
333
334
335
336
335
334
333
334
335
335
334
335
335
336
336
335
336
337
338
338
338
340
342
342
341
341
342
342
341
341
340
341
342
343
345
344
343
341
341
342
341
342
339
337
336
336
336
338
339
339
337
337
337
338
338
337
337
338
339
340
341
347
357
368
376
383
391
398
395
380
359
339
322
311
305
303
308
314
320
325
328
330
333
335
335
335
334
335
335
335
334
335
339
342
342
340
339
340
340
340
340
340
340
340
340
339
339
340
340
342
344
344
345
345
345
344
344
346
345
346
347
348
349
348
347
346
346
348
346
342
340
341
342
344
344
340
337
338
339
338
335
333
333
334
334
333
333
334
336
335
333
333
334
335
335
334
334
335
337
335
335
335
335
337
336
336
336
337
337
336
337
339
342
342
341
340
340
341
341
341
340
341
342
342
344
342
340
340
340
340
340
340
339
339
335
333
334
336
337
336
335
336
336
336
336
334
335
336
337
336
340
343
352
363
372
380
389
396
395
382
364
344
326
312
304
300
304
311
320
325
328
331
333
335
336
335
335
336
336
335
335
336
338
340
342
340
341
342
342
341
340
341
342
342
341
339
339
340
341
341
343
345
346
345
344
343
344
346
346
344
346
349
350
348
347
347
347
349
348
344
341
342
343
343
343
342
339
338
337
337
335
332
332
333
333
332
332
333
335
334
335
335
336
335
334
333
334
336
335
335
335
336
337
337
336
336
336
337
337
336
336
339
342
344
342
341
341
342
342
342
341
342
342
342
345
344
343
340
340
340
340
341
339
336
334
333
335
337
337
336
335
335
336
337
336
336
337
337
338
339
340
343
351
361
370
378
386
395
397
386
367
347
330
316
307
302
304
310
317
323
327
331
333
336
336
335
335
337
337
336
335
335
337
340
341
340
341
343
343
341
340
340
340
340
340
340
340
341
341
341
343
345
346
346
344
343
343
345
345
345
346
349
350
349
348
346
346
347
347
343
341
341
342
342
341
340
338
338
337
337
337
334
333
334
334
333
334
336
336
335
334
334
336
336
335
334
334
336
337
336
336
337
337
336
335
334
335
337
337
336
335
337
340
341
341
341
340
340
341
341
340
340
341
341
342
343
342
342
341
341
340
340
339
337
335
335
336
338
338
336
335
335
336
337
336
336
336
337
337
337
339
343
349
359
368
377
386
394
397
388
371
352
334
319
307
302
303
309
317
322
326
329
332
336
336
335
334
335
335
335
335
335
337
339
341
340
340
341
341
341
341
341
342
341
341
339
339
341
341
340
343
346
347
346
344
343
344
345
346
345
347
349
351
351
349
347
347
349
349
344
342
342
344
345
344
343
340
339
339
339
338
335
333
333
333
333
334
333
334
333
333
334
335
335
334
334
334
335
337
335
333
334
334
335
335
334
335
336
336
335
334
337
341
342
341
340
340
342
342
341
340
341
341
341
343
345
344
342
341
340
339
340
340
337
335
334
335
336
336
336
335
336
337
338
336
336
336
337
337
337
338
341
348
358
367
376
384
393
397
391
376
358
338
321
309
303
303
309
315
319
324
329
333
335
336
335
334
335
335
335
335
335
335
338
340
341
341
341
342
341
340
341
341
340
339
338
340
341
341
340
342
345
346
346
344
343
343
345
346
345
346
348
349
349
348
347
348
349
349
345
341
341
343
344
343
343
340
339
338
338
338
335
334
334
334
334
334
335
335
335
335
335
336
336
335
334
336
337
336
334
334
336
336
337
336
335
335
337
336
336
336
338
342
344
343
341
340
342
343
341
340
340
341
342
341
343
343
342
341
340
339
340
341
340
337
335
335
337
337
337
336
336
337
337
337
337
338
338
339
338
338
342
349
357
366
374
385
394
399
396
381
362
342
326
312
305
304
308
315
320
324
330
333
335
336
337
336
337
337
336
335
336
337
340
342
342
343
343
344
342
339
340
340
341
339
339
339
340
341
340
342
345
348
347
345
343
344
345
346
344
344
347
350
350
349
347
347
348
348
345
342
342
343
343
342
342
341
339
337
336
336
335
334
333
332
332
333
334
334
334
334
335
335
335
335
335
336
336
336
336
336
335
335
336
335
334
335
336
336
336
335
336
341
344
342
340
340
341
342
340
339
339
341
342
342
343
344
343
342
341
340
340
342
339
336
335
336
337
338
337
336
336
338
338
337
335
336
337
338
337
337
341
345
352
361
372
381
390
397
395
383
367
347
328
313
305
303
307
314
319
323
328
332
335
336
337
337
337
336
336
335
336
336
338
339
340
341
341
341
340
339
340
341
341
339
338
339
339
340
339
341
344
346
346
345
344
345
345
344
343
344
348
350
351
348
348
348
349
349
346
342
341
342
343
342
340
340
339
338
337
337
336
335
333
332
332
333
335
335
334
333
334
337
336
335
334
335
336
335
334
334
335
336
335
334
333
335
337
337
336
335
335
340
342
341
340
340
340
340
339
339
340
341
340
339
341
343
343
341
339
339
340
341
341
338
336
336
337
338
338
337
337
338
337
337
337
337
337
338
337
336
339
344
351
360
369
379
389
397
397
387
370
351
332
316
306
303
306
312
317
322
327
331
333
335
336
338
337
337
337
337
336
337
338
339
340
341
341
341
340
340
341
342
342
341
339
340
341
341
340
341
344
346
346
345
344
345
345
345
344
344
347
350
352
350
349
349
350
350
347
343
342
342
343
343
343
343
341
339
338
338
338
336
335
333
333
335
336
336
335
333
333
335
335
335
334
334
335
336
335
335
335
336
336
336
336
335
336
336
335
335
336
339
342
342
340
340
342
342
340
339
339
342
342
342
343
346
345
343
342
341
341
342
341
338
336
337
338
337
336
336
336
337
337
337
335
336
337
337
337
337
340
343
349
358
368
378
387
396
397
389
374
355
335
318
307
304
304
308
314
319
325
330
334
335
335
335
336
337
336
335
336
338
338
339
340
342
342
342
339
338
339
340
340
340
339
340
341
341
339
339
342
346
345
343
343
344
344
344
344
344
346
349
350
349
348
348
349
349
348
345
344
344
345
344
343
342
341
340
337
337
338
336
335
334
333
334
334
334
334
333
334
336
336
335
334
336
337
336
335
334
335
337
336
335
334
336
337
337
335
335
336
338
341
342
342
343
341
340
340
340
341
341
342
341
342
345
344
341
339
339
340
341
341
338
336
336
338
339
337
337
337
338
338
337
337
337
337
337
336
336
340
344
349
357
366
376
385
393
398
392
378
360
339
320
308
303
303
308
313
318
325
332
334
335
336
336
337
336
335
335
335
336
337
338
341
342
342
341
341
341
341
341
341
341
341
341
342
341
339
339
343
346
347
345
344
344
345
344
343
343
344
348
350
349
348
348
348
347
347
344
341
341
343
343
343
343
342
339
337
338
339
338
335
333
333
334
335
335
334
335
335
336
337
336
335
337
337
337
336
336
337
337
337
336
335
336
337
337
336
336
336
338
341
341
341
341
341
341
341
341
342
342
342
341
341
344
344
342
339
340
342
342
342
338
336
335
337
337
336
336
336
337
338
337
336
338
338
338
337
336
337
342
346
353
364
374
384
392
397
394
381
364
343
325
311
304
303
307
313
319
323
330
332
333
334
335
336
336
335
335
335
337
336
337
340
341
342
341
340
340
341
341
341
340
341
341
342
342
341
340
343
346
347
346
346
346
346
344
343
344
345
350
350
350
348
347
348
348
348
346
343
344
344
345
343
344
342
340
337
338
338
337
335
333
333
334
335
334
334
334
334
335
335
334
334
335
336
336
335
335
335
335
335
334
334
335
336
336
335
335
336
336
339
340
340
340
341
341
341
340
341
342
342
341
340
345
345
342
339
339
339
341
342
339
336
335
336
338
337
336
336
336
336
335
335
336
338
338
337
337
337
341
345
351
360
371
381
390
396
395
385
368
347
327
312
305
303
305
312
317
323
329
332
333
335
336
337
337
335
334
335
336
336
336
339
341
341
342
340
341
342
344
341
340
340
341
341
341
340
339
341
345
346
346
344
345
345
345
344
343
344
347
349
349
348
349
350
350
348
346
343
343
343
342
342
342
342
340
337
337
338
337
335
333
332
333
334
334
334
334
335
336
335
334
333
334
336
335
333
333
334
335
334
334
334
335
336
336
334
334
335
335
338
340
340
340
341
340
340
340
341
341
340
339
340
343
345
342
339
338
340
341
341
338
334
335
337
337
334
333
335
336
337
335
335
335
336
337
337
336
336
339
342
348
358
369
380
389
395
395
387
371
352
332
315
307
304
305
310
317
323
329
333
334
335
337
337
337
336
336
337
338
337
337
339
342
343
342
340
340
341
342
343
340
340
340
341
341
341
339
340
343
345
345
344
344
343
343
343
344
345
348
349
349
349
349
349
350
348
347
345
344
344
343
342
343
343
340
337
337
337
337
334
332
331
333
334
334
333
333
334
334
334
334
333
334
335
335
334
334
334
336
336
335
334
336
337
336
335
335
336
337
339
340
340
342
343
341
339
338
340
342
341
340
340
343
345
342
338
338
340
341
341
339
336
336
336
336
335
335
335
336
336
336
335
336
336
336
335
335
336
339
342
347
356
366
377
386
393
396
389
375
354
334
318
308
305
304
307
313
322
328
331
333
335
336
337
337
336
336
336
337
336
337
340
342
343
342
340
340
341
342
341
340
340
341
341
341
340
341
341
344
346
345
344
345
345
346
345
343
344
347
349
350
348
348
349
350
349
349
346
344
343
342
343
344
344
340
337
336
339
339
336
333
333
334
336
336
335
335
335
337
336
335
336
337
336
335
333
334
335
336
335
334
334
334
336
336
335
335
336
337
339
339
340
340
340
340
339
339
340
341
341
340
340
343
346
344
340
338
340
341
342
340
337
335
335
336
336
335
336
337
336
336
336
337
337
337
336
336
338
340
342
346
354
366
377
385
392
396
392
378
359
339
322
310
305
304
306
313
319
324
329
331
333
336
336
335
334
334
335
336
336
335
337
340
342
340
340
340
340
341
340
340
339
341
341
342
339
339
340
344
345
346
345
346
347
346
345
344
345
346
348
349
349
349
348
347
348
348
346
344
343
343
344
344
344
342
338
337
338
338
336
333
333
334
335
335
333
335
335
336
336
334
334
335
336
336
334
335
336
336
336
335
335
336
337
336
335
335
336
336
337
339
340
341
341
341
341
340
341
341
341
340
341
342
345
344
341
340
342
343
341
340
338
337
337
338
337
336
337
338
338
338
338
338
339
339
338
336
338
339
341
345
353
364
375
384
392
398
396
384
365
344
326
313
307
305
308
313
319
326
331
332
334
336
336
335
335
335
335
336
336
335
336
340
342
341
340
339
340
341
340
339
341
342
342
343
342
341
342
345
346
346
346
346
347
345
344
343
344
347
349
349
349
349
349
348
348
348
347
344
343
342
342
344
344
341
337
336
338
340
338
334
332
333
334
333
333
333
334
335
335
333
333
334
335
335
334
334
335
335
335
334
334
335
335
334
334
334
335
336
335
337
340
340
341
341
340
339
339
340
340
340
340
342
344
343
342
340
340
341
340
340
339
336
336
335
335
334
336
337
336
336
335
336
338
338
336
335
335
336
339
342
350
361
372
381
388
394
394
384
367
347
327
313
305
302
304
310
317
324
328
330
332
335
335
335
334
334
335
336
336
336
338
341
342
341
340
340
340
340
340
339
341
341
341
340
339
340
341
342
344
344
344
344
344
344
343
343
344
344
346
348
349
350
350
348
347
347
347
346
344
342
343
344
345
343
339
338
339
339
337
334
333
333
335
335
335
335
335
336
337
335
333
333
334
334
334
334
335
335
335
335
335
336
336
335
334
335
336
336
336
337
339
340
342
342
341
339
340
342
342
341
340
341
343
344
341
340
340
341
341
340
338
337
336
335
335
335
336
336
336
336
336
336
337
336
335
335
336
337
339
344
350
359
370
378
386
394
397
390
374
353
333
318
308
304
304
310
316
324
329
331
333
335
337
336
336
336
336
337
337
336
336
340
342
342
342
342
343
343
342
340
339
340
341
340
340
339
340
342
344
345
344
345
345
344
344
345
346
345
347
348
349
349
350
348
347
346
347
345
342
341
341
342
343
341
338
336
336
337
337
334
332
332
333
333
333
333
334
335
334
334
334
336
337
335
334
335
336
338
336
336
335
336
336
335
334
335
336
337
337
336
340
342
343
341
339
339
341
341
341
340
340
341
343
345
341
339
339
340
340
340
340
337
336
336
336
336
337
337
336
336
335
337
338
338
337
337
337
337
337
341
347
357
368
377
386
393
397
392
376
356
336
320
308
302
302
306
314
321
326
329
330
333
337
336
335
335
336
336
336
335
336
339
342
342
341
341
341
341
340
339
340
341
342
341
340
340
340
341
343
345
345
345
344
343
344
343
344
345
346
348
349
350
351
348
348
348
349
346
342
341
341
344
345
344
339
336
337
338
338
334
333
333
333
333
333
333
334
335
335
334
334
335
335
334
334
334
335
335
334
334
334
335
335
335
334
335
335
336
336
337
340
341
341
340
339
339
339
341
341
339
339
341
343
345
343
340
340
341
342
340
340
338
336
336
335
336
337
337
336
336
336
337
338
337
336
336
337
337
337
339
345
353
365
375
382
391
395
393
379
360
340
323
310
303
302
307
313
319
324
329
332
335
336
337
336
336
336
336
337
335
336
338
341
341
340
340
340
341
341
340
340
341
342
341
340
340
341
341
343
345
346
348
348
346
344
345
346
346
346
348
349
351
351
350
348
347
349
347
344
342
344
344
344
343
341
339
338
338
338
335
334
334
334
335
334
334
335
335
335
336
335
335
335
336
336
335
335
335
335
335
336
337
337
336
335
335
336
338
337
338
340
343
344
342
341
341
342
343
342
341
341
342
343
346
344
342
341
342
342
341
341
340
339
336
336
336
337
337
336
335
336
338
338
338
338
338
338
337
337
340
345
353
364
373
382
391
398
397
384
366
345
328
316
307
303
306
313
320
324
328
331
335
338
338
337
337
337
336
336
336
337
340
343
343
340
341
341
342
341
340
340
341
342
341
341
342
342
342
342
345
345
347
347
344
344
345
345
346
345
347
349
350
350
349
349
348
349
348
346
342
341
343
344
344
340
337
338
338
338
336
335
333
333
333
333
334
336
334
334
335
336
336
336
335
335
334
335
336
336
335
336
336
336
335
334
336
337
337
337
337
339
342
343
342
341
341
342
343
342
340
341
342
344
348
347
343
342
342
342
342
343
341
338
336
336
337
337
337
337
337
337
338
338
337
337
336
338
339
339
340
343
352
362
372
381
389
398
398
388
370
350
332
317
307
302
305
311
318
323
327
331
335
337
337
336
336
336
337
337
336
336
338
342
342
341
340
341
342
341
340
340
341
341
340
339
340
341
341
342
344
346
346
346
345
343
345
347
346
344
345
349
352
351
350
348
348
349
349
346
343
343
343
344
344
344
341
340
339
339
338
336
335
336
335
334
335
337
335
334
334
334
336
337
337
335
335
336
337
336
335
336
337
338
337
336
336
337
337
337
336
338
343
344
343
341
341
342
342
342
341
341
342
342
343
344
342
341
341
341
341
341
342
339
336
335
336
337
338
337
336
337
337
338
337
337
336
337
337
337
338
342
349
359
368
377
386
395
397
388
371
352
334
318
307
302
302
309
316
322
326
330
333
336
337
336
336
337
337
336
336
336
337
341
343
342
342
342
341
340
339
340
342
342
341
340
340
342
342
340
342
345
346
345
345
345
345
345
346
345
347
349
350
350
349
347
348
349
349
345
342
342
345
345
343
342
339
338
339
338
337
334
333
333
333
332
333
334
335
334
333
335
336
337
335
335
336
336
336
335
335
336
336
336
335
335
336
337
338
337
338
339
342
343
342
340
341
341
341
341
341
341
342
342
343
343
342
342
341
340
340
340
340
337
334
333
335
337
337
336
334
336
337
338
338
335
336
337
338
337
338
342
349
358
367
375
384
394
398
390
376
358
338
321
308
303
302
307
315
321
325
330
333
336
336
336
336
336
338
336
336
336
336
340
343
342
341
341
341
341
340
341
341
341
340
339
340
341
342
342
343
346
350
347
346
345
345
347
346
345
346
350
353
352
350
349
350
350
350
346
344
342
344
343
343
343
341
340
339
339
340
337
335
334
334
334
335
336
337
335
334
335
337
337
336
335
335
337
337
336
336
336
337
337
336
335
336
338
338
337
336
336
341
343
342
341
341
343
343
342
342
342
343
343
343
346
346
343
341
341
340
341
343
340
336
335
336
338
339
338
337
337
338
339
338
339
338
338
338
338
339
342
348
356
365
375
384
393
400
394
381
363
343
326
311
304
303
307
315
320
325
330
334
336
336
335
335
336
336
336
335
336
337
341
342
342
341
341
340
340
340
341
342
342
341
341
340
341
340
340
341
344
346
345
344
344
344
345
346
347
344
348
350
350
347
347
347
348
351
347
343
342
343
344
343
342
340
339
337
337
337
336
334
333
333
333
334
336
336
335
333
334
336
335
334
334
334
335
335
335
334
334
335
335
334
334
334
335
336
335
335
336
341
343
341
340
340
341
342
340
339
340
342
342
341
344
346
343
342
341
339
340
342
340
337
335
335
336
336
335
335
336
337
338
337
336
337
338
338
337
337
340
345
353
363
372
382
391
398
396
384
367
346
327
312
305
303
306
313
319
323
328
332
333
334
335
336
336
336
336
335
336
337
337
339
340
341
342
343
341
340
341
342
342
342
339
340
341
341
340
342
345
347
347
345
344
344
344
344
344
343
346
349
350
348
347
348
349
348
345
342
341
343
343
343
342
341
339
337
337
337
336
335
334
333
333
334
335
335
335
334
335
335
335
335
335
336
337
337
336
335
335
337
338
337
336
336
337
337
337
336
336
340
342
343
342
341
341
342
341
340
341
342
342
340
342
344
343
341
339
339
341
342
340
336
334
335
337
337
336
335
335
337
337
336
336
337
338
337
336
336
339
343
351
360
370
380
389
395
396
387
370
351
333
316
306
304
307
312
316
321
327
333
335
335
336
336
336
336
335
336
336
337
338
340
341
344
343
341
340
340
341
342
343
342
341
341
342
342
341
341
344
346
348
346
345
346
346
346
345
345
347
350
350
349
348
349
349
349
346
342
342
343
343
342
342
341
339
338
337
337
338
335
333
331
331
333
334
334
334
334
335
335
335
334
333
334
336
336
334
334
335
337
337
336
336
336
336
337
336
336
336
339
341
341
340
340
341
341
340
340
341
343
342
341
343
346
345
344
342
340
341
341
341
337
336
336
337
337
336
335
337
338
338
338
338
340
340
339
336
335
340
344
350
358
368
378
388
397
398
391
376
357
337
319
308
306
306
310
315
321
327
332
334
336
337
337
338
338
336
335
337
338
339
340
341
341
341
341
340
339
340
341
341
339
339
339
340
342
340
340
343
346
346
344
343
344
345
345
345
345
346
348
348
348
348
348
350
350
348
346
345
345
345
343
343
343
341
340
338
337
337
336
334
332
332
333
334
336
334
333
334
336
337
335
334
335
336
335
335
334
334
335
335
334
334
335
336
336
334
334
334
339
342
342
341
341
342
341
339
339
340
341
342
340
342
345
344
341
339
339
341
342
342
338
335
336
337
337
336
335
337
337
337
336
336
338
339
339
337
337
339
343
349
356
366
377
387
394
397
391
378
360
341
321
308
303
303
308
313
320
324
330
332
334
335
336
338
337
335
334
336
337
337
339
342
343
343
342
341
340
341
342
343
342
341
341
342
342
341
342
345
347
346
344
343
344
346
346
346
345
346
349
351
350
349
348
348
349
348
346
344
344
344
343
342
343
341
340
338
337
338
337
334
333
333
335
335
336
334
333
334
336
336
336
334
334
335
334
334
334
335
336
336
334
334
335
337
336
335
335
336
337
340
342
341
342
342
342
341
341
342
342
342
341
341
345
344
341
339
340
340
341
340
337
334
334
336
337
336
335
336
338
337
336
335
337
338
337
335
336
337
341
346
353
363
374
384
392
396
393
381
363
342
323
310
304
302
306
313
319
325
331
333
334
335
336
338
336
336
335
336
337
336
337
340
342
343
341
340
339
340
341
341
340
340
341
341
341
339
339
342
346
346
345
344
345
346
345
344
344
346
349
350
349
348
350
350
350
348
345
344
344
343
343
343
343
341
339
337
338
339
338
334
334
334
335
336
335
335
335
336
336
336
334
334
336
337
336
335
335
336
337
337
336
336
337
337
337
337
336
337
338
340
341
341
341
341
341
340
341
342
343
342
341
340
344
345
342
339
340
340
341
341
339
337
337
336
336
336
336
337
337
337
336
336
336
337
337
336
336
337
341
344
351
360
371
380
389
395
395
384
368
347
328
312
305
303
305
310
317
323
329
331
333
335
335
335
335
335
334
335
335
334
334
337
341
342
340
339
339
340
341
341
340
341
342
342
341
339
340
343
347
347
346
345
345
346
345
344
344
345
349
351
350
350
349
351
350
349
347
345
344
344
343
344
345
344
341
338
337
339
338
335
332
331
334
335
335
334
334
335
336
335
335
335
336
336
336
335
335
336
337
337
336
335
336
337
336
336
337
338
338
340
341
341
342
342
342
341
340
341
342
342
341
341
344
346
344
343
342
341
342
342
340
337
336
337
336
336
336
336
336
337
337
336
338
339
338
336
336
337
341
343
350
360
370
380
388
395
396
389
372
352
332
317
308
304
305
309
317
323
328
332
333
336
339
338
338
336
336
338
338
338
338
341
343
343
341
341
341
342
342
342
339
340
341
342
341
340
340
342
347
347
346
346
346
346
346
346
345
345
347
349
349
349
349
349
349
348
348
346
344
342
342
343
343
343
339
337
337
339
338
335
333
333
334
335
336
335
335
335
336
335
334
334
335
335
335
334
334
335
337
336
335
335
336
337
337
336
336
337
337
339
341
343
342
343
342
341
340
341
342
341
340
340
344
347
344
339
340
341
342
342
340
337
337
337
336
335
336
336
337
337
337
337
338
339
336
336
336
337
339
342
347
356
368
378
385
392
395
391
376
356
336
319
308
303
304
308
314
321
327
331
332
334
336
338
336
335
334
336
338
336
336
339
342
343
341
341
340
341
342
342
340
340
340
341
341
341
342
342
345
346
345
344
344
345
344
345
345
346
347
349
350
350
350
350
349
348
348
345
344
343
343
343
344
344
340
338
338
340
340
337
334
333
335
336
335
334
333
334
335
334
334
334
335
335
334
334
334
335
336
336
334
335
337
337
335
333
334
336
337
336
338
340
341
341
340
340
339
340
341
340
340
340
342
345
343
339
339
340
341
340
339
337
335
335
335
335
335
336
337
337
336
335
336
337
337
336
336
337
339
341
345
354
366
377
384
391
397
393
380
359
339
321
310
304
303
306
313
321
327
330
331
334
337
338
337
336
336
336
337
335
334
337
341
342
342
341
340
341
341
341
341
341
343
343
341
342
340
341
345
346
345
345
345
346
346
345
345
346
347
349
350
349
349
349
348
348
348
346
344
342
342
342
343
344
340
337
336
337
338
336
334
334
335
335
334
334
334
334
335
334
333
334
335
336
336
334
335
336
336
336
335
335
337
336
336
335
336
336
336
337
339
340
341
342
341
340
340
340
342
342
341
339
340
344
344
341
339
340
341
342
342
339
338
337
337
336
336
336
337
338
337
336
337
338
336
336
336
337
339
341
345
353
364
373
382
391
398
396
383
365
343
325
313
305
302
305
312
320
326
329
331
332
335
336
336
337
336
337
337
335
334
337
342
344
342
340
340
342
342
341
339
339
341
341
340
339
339
340
341
344
344
345
346
347
345
344
344
345
345
347
348
350
352
350
348
348
349
348
344
341
341
342
344
343
340
337
336
338
339
338
335
332
333
334
333
333
334
334
334
334
333
334
335
335
335
334
334
336
335
336
334
335
336
336
335
335
335
336
336
337
338
342
343
342
341
341
341
342
342
341
341
341
342
345
345
342
340
341
342
341
341
339
336
336
336
337
337
337
336
337
336
336
337
338
336
336
337
338
338
340
343
351
362
372
382
389
398
399
388
370
349
331
317
308
304
305
311
319
325
328
330
333
337
339
337
336
336
337
337
335
334
337
341
342
341
339
339
341
342
341
340
340
342
343
341
341
342
342
343
344
346
346
346
346
345
346
346
347
346
347
349
351
351
350
349
348
348
347
344
341
341
342
344
344
342
338
337
337
338
336
333
332
334
335
335
335
336
336
335
335
334
335
337
337
336
335
336
336
336
336
336
336
336
337
336
335
336
337
337
337
338
341
342
342
340
339
340
342
342
341
339
339
340
344
345
341
340
340
341
341
340
338
336
335
335
336
336
337
337
337
336
336
338
337
337
336
337
336
337
338
340
348
358
370
377
386
394
397
389
372
352
333
317
307
302
303
308
315
321
325
329
331
334
336
335
335
335
336
336
336
335
335
340
342
342
340
339
340
341
340
340
340
341
342
341
340
341
341
341
344
347
346
345
345
343
343
344
345
344
346
348
350
350
349
348
348
350
350
346
342
341
342
344
344
342
339
337
337
338
337
334
333
333
333
334
333
333
335
335
334
333
333
334
334
333
334
335
336
335
334
333
334
336
336
334
334
335
336
336
335
336
340
342
342
339
339
339
341
341
340
340
340
342
343
346
343
341
341
341
340
340
340
338
336
334
334
336
339
337
336
336
335
336
336
335
335
336
336
336
337
339
346
356
366
374
383
392
398
392
377
355
336
320
309
303
301
306
314
320
325
329
332
335
338
336
335
336
336
336
335
334
335
339
342
341
339
340
342
342
340
340
341
342
342
340
341
341
342
341
342
344
346
346
347
345
345
345
345
345
346
347
349
349
349
347
346
348
348
346
343
341
343
344
344
343
339
337
338
339
338
336
334
336
336
334
333
334
335
336
335
334
335
336
336
335
335
336
337
336
335
336
335
337
337
336
335
336
336
336
336
337
341
343
343
341
341
342
343
342
342
342
342
342
343
345
344
342
342
341
340
340
341
340
338
337
336
336
338
338
338
336
338
338
338
337
338
339
338
337
337
340
346
355
366
375
384
394
399
394
380
362
343
326
312
305
303
307
315
321
325
330
333
336
338
337
337
336
337
337
336
336
336
339
340
340
340
340
341
342
341
341
340
342
342
340
340
340
341
341
341
344
346
346
346
345
344
344
345
344
343
346
350
351
348
347
346
347
347
345
342
341
341
341
342
341
339
338
337
337
337
336
334
333
333
334
334
334
335
334
334
333
334
336
336
335
335
336
337
336
335
335
335
337
337
336
336
336
337
337
336
337
340
342
342
341
340
341
342
343
341
340
342
341
341
342
342
341
340
340
339
340
341
340
338
336
336
337
337
337
336
336
337
337
337
338
337
338
338
338
337
340
346
354
365
374
383
391
398
397
385
367
347
328
314
305
303
306
312
318
325
329
331
333
336
335
334
335
336
336
335
335
336
337
339
339
339
340
340
340
339
339
341
342
341
339
339
340
341
341
342
344
345
346
345
344
344
345
346
346
345
347
349
350
350
348
348
350
350
348
344
342
343
344
344
342
340
337
336
337
338
337
334
334
333
333
334
334
335
335
334
334
335
336
336
335
334
336
337
336
335
335
336
337
336
336
335
336
337
337
335
335
339
342
342
341
341
342
342
342
340
340
340
341
341
343
344
342
341
340
339
340
341
341
338
336
335
337
337
337
336
336
337
338
337
335
335
337
338
337
337
340
344
352
361
370
380
390
398
398
386
369
350
331
316
306
302
304
311
317
322
326
