0
333
334
333
333
335
338
339
338
337
338
339
339
337
338
339
339
339
338
341
343
341
338
337
338
340
341
338
334
332
334
336
335
334
334
336
336
336
335
335
337
337
337
336
337
341
346
351
359
370
380
390
396
395
385
369
350
330
314
305
303
306
311
316
322
328
332
334
334
335
336
337
336
335
335
338
337
338
338
340
340
341
340
339
339
341
342
340
339
339
339
340
339
338
340
344
347
346
344
344
345
346
346
344
344
347
350
350
349
348
349
350
348
347
344
343
343
343
342
342
341
340
337
335
333
334
335
334
333
333
335
339
341
341
340
339
341
340
338
340
339
340
339
338
341
343
342
339
337
337
339
342
339
334
332
333
336
336
334
333
335
336
336
334
335
335
337
336
336
336
340
343
348
356
367
378
387
394
395
386
372
353
333
315
306
302
304
308
314
322
328
332
332
333
334
336
336
336
334
334
337
338
337
338
339
341
342
341
339
339
340
341
341
340
339
342
342
341
339
340
344
346
346
344
344
345
346
345
344
343
347
351
351
348
347
349
350
348
346
343
344
344
343
342
342
344
341
339
336
335
334
335
334
333
333
335
338
341
339
339
341
341
340
337
338
339
341
340
339
341
344
343
340
338
338
340
340
339
335
333
334
335
335
334
334
335
337
336
336
336
337
337
336
334
334
337
342
347
355
364
375
386
393
395
388
375
356
335
316
305
303
304
308
314
319
324
330
331
333
335
336
336
335
333
334
336
336
336
337
339
341
342
340
339
340
342
342
341
340
341
342
343
342
340
341
344
347
346
345
345
346
347
346
344
344
347
350
350
349
348
350
351
350
347
344
343
344
343
343
343
344
342
339
337
335
335
336
335
333
333
335
337
339
339
338
340
340
341
340
339
340
341
341
340
340
344
344
340
337
338
340
343
341
337
334
335
336
337
334
334
336
337
336
335
334
336
336
336
335
335
338
342
347
355
365
375
385
393
396
391
378
360
339
321
309
304
303
307
313
320
326
331
332
333
334
336
337
336
335
336
337
337
337
338
341
343
344
343
341
341
343
344
342
341
340
341
342
341
339
339
343
346
346
344
344
345
346
346
345
346
348
350
350
349
348
349
349
349
347
345
344
345
345
344
343
343
342
339
337
336
334
334
335
334
335
335
337
339
338
338
340
341
340
339
338
339
340
340
338
340
344
344
340
338
338
339
340
340
336
334
335
337
337
336
336
337
339
337
335
335
337
337
337
336
336
339
342
346
353
363
375
384
391
396
394
383
366
343
323
310
304
303
305
310
317
324
330
331
332
334
336
337
336
334
334
335
336
336
337
339
341
342
341
339
339
342
342
340
338
339
341
341
341
339
339
342
345
345
344
344
346
346
345
344
345
346
350
350
348
348
349
349
347
346
344
344
343
342
342
342
343
342
338
334
334
333
335
335
333
334
335
337
338
338
338
339
340
339
339
339
339
340
339
338
339
343
344
341
338
339
340
340
339
337
335
334
335
335
334
334
337
337
337
336
336
337
337
337
336
335
335
339
343
352
360
372
382
389
395
394
385
368
347
326
312
306
304
305
309
316
322
328
329
331
333
336
335
335
334
334
336
336
335
336
339
340
340
340
339
340
340
341
340
339
339
341
341
341
340
340
344
347
348
346
345
345
346
344
343
345
346
350
351
350
350
351
351
350
348
346
344
343
342
342
342
343
342
339
337
336
335
335
334
333
334
335
336
338
339
339
339
341
341
340
339
340
340
339
338
338
342
344
341
338
337
340
341
340
338
335
335
336
335
335
336
337
337
335
334
335
336
336
335
334
334
337
340
342
348
359
370
379
386
393
395
387
371
349
329
315
307
305
305
308
315
322
327
330
330
333
335
335
335
333
333
335
336
336
336
339
342
342
341
340
340
340
340
339
338
339
340
341
340
340
339
341
345
345
344
343
345
346
345
343
343
345
348
349
348
348
350
349
349
347
346
344
344
344
342
342
343
344
340
337
336
335
335
334
333
334
337
337
338
339
340
341
341
339
338
339
340
340
340
340
340
343
345
341
338
338
340
342
341
339
336
335
335
334
334
335
337
337
337
335
335
337
339
337
336
335
336
339
342
348
357
368
378
386
393
396
389
375
353
332
318
308
304
304
309
314
321
327
330
331
333
336
336
336
335
336
337
338
335
334
338
342
343
341
339
340
342
343
341
339
340
342
342
341
340
341
343
347
348
345
345
345
346
345
344
344
345
347
348
348
349
349
350
349
347
347
345
344
342
342
343
344
344
340
338
336
335
335
333
333
334
335
336
336
337
339
341
341
339
338
339
340
340
339
338
338
342
344
341
338
338
340
342
341
338
336
335
335
335
335
334
336
337
336
334
334
336
336
336
335
335
337
340
341
345
354
366
376
385
392
395
390
377
357
335
319
309
304
303
307
314
320
326
329
329
333
334
336
334
332
333
335
336
335
335
337
341
342
341
338
339
340
342
341
338
338
340
341
339
338
338
340
343
344
344
344
345
345
344
343
343
345
347
349
350
349
350
350
349
347
348
347
345
343
342
342
344
344
341
337
336
336
336
334
334
335
335
336
336
337
338
339
340
338
337
339
340
341
340
338
339
341
344
344
340
338
338
340
340
339
336
335
336
335
334
335
335
336
335
334
335
336
338
335
333
333
335
338
340
343
351
363
374
385
390
394
392
379
360
339
321
310
305
302
305
313
320
326
329
330
332
336
336
335
334
334
335
335
334
334
337
341
341
339
337
339
341
340
339
338
339
340
340
340
339
339
340
343
345
343
343
345
345
343
342
343
345
347
348
347
348
349
351
349
347
348
347
346
344
343
343
344
344
341
336
336
335
335
333
333
333
335
336
335
337
338
341
340
338
337
339
341
341
340
339
339
341
345
344
341
340
340
341
339
338
337
336
335
334
333
335
337
338
337
335
336
337
338
336
335
335
336
338
340
344
352
363
372
381
389
395
394
382
363
341
323
311
305
301
303
309
317
324
329
330
331
335
335
334
332
332
334
335
334
333
336
341
342
341
339
339
342
343
341
339
339
341
341
340
339
339
340
343
344
344
345
345
347
345
344
344
345
346
348
348
349
351
350
348
346
347
347
344
342
341
343
344
344
342
338
338
337
335
333
333
334
335
335
334
336
339
341
341
339
337
339
341
341
339
339
340
342
344
343
340
339
341
341
339
338
338
336
336
335
335
337
338
339
337
336
336
337
337
337
336
336
338
339
340
342
350
362
373
379
386
394
398
388
369
347
328
316
308
303
304
310
318
323
327
330
333
336
337
336
335
335
336
336
335
334
337
341
342
340
339
339
341
342
340
339
340
342
340
340
338
339
340
342
344
344
344
345
345
343
342
343
344
344
345
346
347
348
349
348
346
346
346
343
341
341
341
343
343
341
336
336
335
334
332
331
332
334
336
334
336
340
340
340
337
336
337
339
339
338
337
338
339
342
342
339
337
339
340
338
337
336
335
335
334
333
334
336
336
335
334
334
335
336
335
335
336
337
336
337
339
347
358
369
377
385
393
396
387
370
348
330
316
307
301
302
307
315
321
325
327
330
334
335
334
332
332
335
335
334
333
334
338
341
340
338
338
339
340
339
338
339
339
339
339
339
340
341
341
343
343
344
345
347
344
343
343
344
344
345
347
348
349
348
346
345
346
348
345
343
341
343
344
344
342
338
337
338
336
332
332
333
336
337
336
336
339
341
342
339
337
339
340
342
339
338
338
339
341
343
341
339
339
340
340
339
339
338
336
335
335
336
338
338
336
334
335
337
338
336
336
336
338
337
337
339
347
358
369
377
384
393
398
390
373
352
333
319
308
303
302
308
315
321
325
328
330
335
335
334
332
333
335
336
334
333
335
340
341
340
338
339
341
341
340
340
340
341
341
340
339
339
341
342
343
344
345
345
345
343
343
344
345
345
346
348
350
350
350
347
346
347
347
345
342
341
342
344
344
341
337
336
337
336
334
331
331
334
335
334
334
337
340
340
339
338
338
339
339
338
337
338
340
342
342
340
339
339
339
338
337
337
337
336
334
333
334
335
336
334
334
335
336
336
334
334
335
336
337
337
338
344
354
366
374
382
390
396
392
377
356
336
321
309
302
300
304
312
320
323
327
330
333
335
334
333
334
335
336
335
334
334
338
340
340
339
339
340
340
339
339
339
341
341
340
339
340
341
341
342
343
344
345
345
344
343
344
345
345
345
347
349
351
350
347
345
346
347
345
342
341
341
343
343
342
339
339
339
337
334
332
332
335
335
334
333
337
339
339
338
337
338
339
340
339
339
339
340
340
341
340
338
338
338
338
337
337
336
335
333
332
334
336
336
335
334
335
335
336
334
333
334
335
336
336
338
343
353
364
372
380
390
398
395
379
360
340
324
310
302
299
303
311
317
320
325
329
333
334
333
331
333
334
333
333
333
333
338
340
340
339
338
339
339
338
338
338
340
340
339
338
338
338
339
341
343
344
345
345
343
342
343
344
344
344
344
347
350
350
349
347
347
348
348
343
341
342
344
345
342
338
337
338
337
333
331
332
333
334
333
334
337
340
341
339
338
338
340
340
339
337
338
339
339
341
340
340
340
339
338
337
338
337
336
333
333
334
335
336
334
333
334
336
336
334
333
335
336
337
336
338
343
352
362
371
379
388
395
394
381
362
343
326
312
304
301
304
311
317
321
325
329
333
336
335
333
333
335
336
335
334
335
338
341
341
339
339
340
339
338
337
338
341
341
340
338
339
341
342
342
343
346
348
348
345
343
343
345
347
346
347
350
352
351
349
348
349
349
347
343
341
344
345
344
342
339
338
339
338
334
332
333
336
336
335
333
336
340
341
339
338
339
340
340
339
339
339
341
341
342
342
340
339
340
339
339
340
340
338
335
334
334
336
337
336
336
336
337
338
336
335
336
338
338
337
338
342
351
361
369
377
387
395
395
384
367
348
330
315
305
301
303
311
318
322
326
331
335
337
335
334
335
337
337
335
334
335
338
342
341
340
339
341
342
340
339
339
340
342
339
339
339
341
340
340
342
345
346
346
343
342
343
345
345
344
346
348
349
349
348
347
347
349
348
343
340
341
343
344
341
339
338
338
338
334
331
332
334
335
333
333
336
339
339
338
337
338
339
339
338
337
339
341
342
342
342
340
341
340
339
338
339
339
336
333
332
333
335
335
334
334
336
336
336
334
334
334
336
336
335
336
339
347
358
368
376
385
394
396
386
370
351
333
318
307
302
303
309
316
321
325
329
332
334
334
333
334
336
338
337
335
335
337
341
342
340
340
342
342
341
339
339
341
341
340
339
339
341
340
339
340
343
345
345
343
343
344
345
345
344
345
348
350
350
348
346
346
348
348
343
340
340
342
343
342
341
340
339
337
334
332
332
335
334
333
333
336
340
340
338
337
338
339
340
338
337
338
339
339
340
343
341
340
340
339
339
339
339
337
333
333
335
337
337
335
334
335
336
336
336
334
335
336
337
336
336
338
346
356
365
374
384
394
397
389
373
354
335
318
306
301
301
307
314
319
323
328
332
335
335
333
334
336
336
334
333
334
336
338
340
340
340
341
341
339
338
339
341
341
339
338
339
341
342
341
342
344
346
346
344
342
343
345
345
344
344
347
350
350
348
346
347
349
349
344
341
341
343
345
344
341
338
337
337
334
332
332
334
334
333
332
335
340
341
338
337
338
340
341
339
338
338
340
340
341
342
341
340
339
338
338
340
341
338
334
333
333
335
335
334
334
335
336
336
335
334
335
337
337
337
337
341
348
356
364
374
384
394
398
392
377
360
341
323
309
302
302
307
314
319
322
328
331
334
335
335
335
336
336
334
334
335
337
340
340
340
341
341
340
339
339
341
342
341
339
338
339
341
341
340
341
344
348
349
345
343
343
345
345
344
344
347
351
350
348
347
347
349
350
346
344
344
345
345
343
342
341
340
339
336
333
333
334
335
333
332
335
339
341
340
338
339
339
340
339
338
339
340
340
338
340
341
340
339
337
337
339
341
338
334
332
334
337
337
336
335
335
336
337
336
335
335
336
336
335
334
338
344
352
362
370
381
392
398
393
379
361
342
324
310
302
301
305
311
316
321
327
331
334
335
334
334
335
336
334
333
334
335
337
339
339
340
341
341
340
340
340
340
339
338
337
339
340
341
340
340
343
346
346
344
343
343
344
344
344
343
346
348
349
348
347
347
348
348
345
341
341
343
344
342
341
340
340
338
336
331
331
334
335
334
333
334
339
342
340
337
338
339
340
338
337
339
342
341
339
340
341
340
339
339
338
338
339
338
333
332
334
336
337
336
334
335
337
338
336
335
335
337
337
336
335
338
344
351
360
369
379
389
396
394
382
365
346
327
311
302
300
304
311
316
321
327
331
333
334
334
334
334
335
334
333
333
334
336
337
338
339
340
340
339
338
339
341
341
339
337
338
340
342
340
340
342
345
345
344
342
342
344
344
343
342
345
348
349
347
347
346
348
348
345
342
340
342
343
341
340
340
339
337
334
332
331
333
334
334
334
334
337
339
339
338
339
340
340
338
337
338
339
339
338
340
342
341
339
338
337
338
340
339
335
332
333
334
335
334
333
335
335
335
334
333
334
336
336
336
333
337
343
351
359
368
377
388
396
395
385
369
350
331
314
304
300
303
310
314
319
325
330
332
334
334
335
336
336
335
334
334
336
337
339
339
340
341
341
340
340
340
342
343
340
339
339
340
340
339
339
343
346
346
345
344
344
345
346
344
343
345
348
350
349
346
346
348
349
348
343
340
343
343
342
341
341
340
338
336
333
332
333
334
333
333
334
337
340
340
339
338
340
341
338
337
339
339
340
340
340
342
342
341
338
338
338
340
340
337
334
334
336
336
335
334
335
337
337
336
335
335
337
338
336
335
337
342
350
358
368
378
387
395
395
387
372
354
335
318
306
302
303
309
314
319
325
330
333
335
335
335
335
335
335
333
334
335
336
338
340
340
341
340
339
338
339
340
340
339
338
339
341
341
340
340
343
346
346
344
342
343
345
346
344
342
345
348
349
347
346
346
349
349
346
342
340
342
342
341
341
341
340
340
337
333
333
334
335
333
332
332
336
340
340
338
338
339
339
338
337
338
339
340
339
340
342
341
339
337
338
339
341
340
335
333
334
335
336
334
333
334
335
335
335
335
334
336
337
336
335
337
341
348
355
364
374
384
393
396
389
375
357
338
321
307
301
302
308
313
318
323
329
331
334
334
334
336
337
334
334
334
336
336
338
339
340
341
340
339
339
339
340
340
340
339
340
340
341
340
340
342
347
346
345
343
344
344
345
344
344
346
350
351
349
347
347
348
349
349
344
343
343
344
344
342
343
341
339
337
334
332
334
335
334
333
333
337
340
339
338
337
339
340
339
338
338
339
340
339
339
342
342
340
338
337
338
340
340
336
333
333
335
336
335
333
333
335
336
335
335
335
335
336
335
334
335
340
346
353
362
372
382
391
395
390
378
361
341
322
307
300
301
306
311
316
321
328
332
333
333
334
335
335
335
333
334
335
336
337
340
341
341
340
339
338
339
340
340
339
338
339
340
341
340
338
341
344
345
345
345
345
344
345
345
343
344
348
350
349
348
348
349
349
347
344
341
342
343
343
342
342
340
338
336
334
332
332
334
334
334
334
336
339
339
338
337
338
339
339
339
340
341
340
338
337
340
342
340
338
338
338
339
339
335
331
331
333
334
334
333
333
334
335
335
334
334
336
336
335
334
335
339
344
351
360
370
380
391
395
392
380
363
345
325
310
303
302
306
311
316
321
328
331
332
333
334
336
336
334
333
334
335
336
336
338
340
341
340
338
337
338
339
340
339
338
338
340
341
340
339
342
345
347
345
343
344
345
345
345
343
344
348
350
350
348
349
349
349
348
345
343
343
344
344
342
343
342
340
337
335
333
333
334
333
332
333
336
340
341
339
338
339
339
338
337
338
339
340
339
338
340
342
340
338
336
336
339
340
337
333
333
335
336
334
333
333
334
336
335
334
334
335
336
335
334
335
339
344
350
359
369
380
389
394
393
383
368
349
330
312
304
303
306
310
315
320
327
332
333
334
335
335
335
336
334
335
336
337
337
338
339
340
341
340
338
339
340
341
342
340
339
340
342
341
340
341
344
346
345
344
344
345
345
344
343
344
348
351
350
348
347
348
349
349
346
343
343
343
342
341
342
342
339
337
335
334
336
336
335
334
333
334
337
339
339
339
339
339
339
338
338
341
341
339
338
341
344
341
338
337
337
339
340
339
335
333
335
336
335
335
335
336
337
336
336
335
336
337
336
335
334
338
342
348
356
367
378
388
395
395
386
372
352
330
314
305
304
305
309
314
321
326
331
331
332
334
335
335
334
333
334
336
336
336
337
340
341
341
338
337
338
340
341
340
339
339
340
342
340
339
341
344
347
346
344
344
344
345
344
343
344
346
350
350
348
349
349
349
347
345
343
343
344
343
341
342
342
340
338
335
333
333
335
334
332
332
334
337
340
338
338
339
340
340
337
337
339
339
337
336
340
344
342
338
336
337
340
341
339
335
334
335
336
335
333
334
335
336
335
334
334
336
336
335
334
336
339
342
346
355
365
377
386
393
394
387
374
355
334
317
307
303
303
306
312
318
326
331
331
332
335
337
337
335
333
333
335
336
335
337
339
340
340
340
339
338
339
340
339
338
337
339
340
338
338
339
343
346
344
343
343
344
346
344
343
343
346
350
350
348
348
350
349
348
347
343
343
343
343
342
342
343
341
336
333
332
332
334
334
333
333
334
335
337
338
339
339
339
338
337
338
339
340
339
337
339
343
343
339
337
337
339
340
339
335
333
334
335
334
332
333
335
337
336
334
334
337
337
335
335
335
338
342
346
353
364
375
385
393
395
390
376
357
337
319
307
303
303
307
312
318
325
330
331
332
333
336
337
335
333
333
336
336
336
337
339
340
341
340
337
338
340
341
340
339
339
340
342
341
340
340
344
346
345
344
343
345
345
343
343
345
347
349
349
347
347
348
349
348
346
344
343
344
343
341
341
342
340
337
335
333
333
333
333
332
333
334
336
338
339
339
340
340
339
338
338
339
340
340
338
340
344
343
339
337
337
339
339
338
334
332
332
335
335
334
333
334
335
334
333
334
335
336
335
334
335
337
340
344
352
364
376
385
391
394
391
381
363
341
322
308
303
302
304
309
317
324
329
331
332
335
336
336
334
333
333
335
336
335
336
338
340
342
341
339
339
341
341
339
338
338
339
340
339
339
338
341
345
345
343
343
345
345
344
343
343
346
349
349
347
346
347
348
348
347
345
344
343
342
340
342
344
342
338
334
333
333
334
334
333
333
335
336
337
337
339
339
340
339
337
338
340
340
340
338
339
343
343
339
337
337
338
339
338
335
333
333
334
334
333
334
336
337
335
334
334
335
335
335
334
334
336
339
343
349
360
371
380
388
393
392
383
366
343
324
310
304
302
304
309
316
323
327
329
330
333
335
335
334
333
334
336
336
334
336
339
340
341
339
338
338
339
340
340
338
338
340
341
339
338
340
343
345
345
345
345
346
346
344
343
344
346
347
348
347
347
349
349
349
347
345
343
343
343
342
342
343
341
337
335
335
333
333
332
332
333
335
336
338
338
339
341
340
339
338
338
339
339
339
338
338
341
343
339
337
338
340
341
339
336
334
334
336
335
333
333
335
336
335
334
335
337
337
335
334
335
336
339
342
348
358
369
379
386
392
393
385
369
347
328
313
305
304
304
310
317
323
328
329
330
333
336
336
335
334
334
335
336
336
336
338
342
342
340
338
338
340
340
339
338
339
341
341
340
339
340
342
345
345
344
344
346
346
345
343
342
343
348
349
348
347
348
349
349
347
346
344
343
342
341
341
343
343
339
337
335
335
334
333
331
331
333
335
337
338
339
340
339
337
337
337
339
342
339
338
337
341
343
340
337
337
338
339
339
337
334
334
334
334
335
335
336
336
335
334
335
337
337
336
335
336
336
340
342
347
356
368
378
386
392
395
388
374
353
332
316
307
304
303
307
313
320
326
329
329
332
335
335
335
333
333
334
335
334
333
336
340
341
340
339
339
341
342
341
339
339
340
341
340
338
338
340
344
345
344
345
345
345
345
343
343
345
347
348
349
350
349
349
348
348
347
346
344
342
341
343
345
345
340
336
336
336
334
334
333
334
335
335
336
337
338
340
340
338
337
337
339
340
340
338
338
341
345
342
337
337
339
341
339
337
334
333
334
333
333
333
335
336
335
334
334
336
337
335
334
334
336
339
341
345
354
366
377
385
391
394
389
375
355
334
317
307
303
302
305
313
321
327
329
330
333
335
335
334
333
333
334
335
335
334
337
340
342
339
338
339
341
341
340
339
339
341
342
340
337
338
341
345
346
344
343
344
345
344
342
343
344
345
346
346
347
348
348
346
345
346
345
344
342
341
341
343
343
340
335
336
336
335
334
333
333
335
335
335
337
339
340
340
339
337
338
339
339
338
337
338
340
344
341
338
337
339
339
338
338
335
335
335
334
333
333
335
336
335
334
334
336
337
335
334
335
336
339
341
344
353
364
374
382
390
395
390
377
358
337
320
309
304
301
304
311
318
325
328
328
331
334
335
335
333
333
334
335
334
333
336
340
342
340
338
338
339
341
339
338
338
340
341
340
338
338
340
342
343
343
343
344
344
343
341
342
344
345
347
348
347
348
348
348
346
346
345
344
342
341
342
343
344
339
336
336
336
335
332
332
333
334
334
334
336
339
340
340
339
337
338
340
341
339
338
339
341
344
343
339
338
339
341
339
338
337
337
336
335
334
335
336
337
337
335
335
337
338
336
335
335
338
339
340
343
352
363
373
381
389
395
394
383
363
341
323
312
306
302
305
310
319
324
327
328
332
335
336
335
334
334
336
336
335
334
337
341
342
342
340
339
341
341
340
339
339
340
341
339
338
339
341
343
345
344
344
346
346
344
343
344
345
347
348
348
348
349
349
348
347
347
345
344
343
341
342
346
346
341
337
335
335
333
332
332
334
335
335
334
336
337
338
339
338
338
340
341
341
339
337
338
339
343
342
338
337
339
339
338
336
337
335
335
334
333
333
334
334
333
333
334
335
336
334
333
334
336
336
338
341
349
361
373
382
389
395
395
385
367
345
327
313
306
302
302
308
316
324
328
329
332
335
337
336
335
335
336
336
336
334
336
340
342
341
339
339
341
341
339
339
340
343
342
340
339
340
341
344
344
343
343
345
346
344
342
342
344
345
347
348
349
351
349
347
345
345
346
343
341
340
341
343
343
340
337
337
337
335
334
333
333
335
336
335
336
339
341
341
339
338
338
340
341
339
338
337
340
344
343
339
337
338
339
339
339
337
336
334
333
333
334
335
336
336
335
334
335
334
334
333
335
336
336
337
339
348
359
369
377
385
393
395
386
368
347
329
316
306
301
301
308
316
321
326
330
332
335
335
334
332
334
335
336
334
333
335
339
342
341
339
340
342
341
341
339
339
341
342
340
339
339
340
342
345
345
346
346
346
344
343
343
345
344
344
346
347
349
349
348
345
345
347
344
341
339
340
343
343
341
337
336
336
335
332
331
331
333
334
333
334
338
341
340
338
337
338
340
339
338
337
338
339
342
343
340
339
340
340
340
338
339
337
335
333
332
333
335
336
335
334
335
336
337
335
335
335
337
337
338
341
348
358
367
376
384
392
396
389
373
352
333
318
308
301
301
307
315
323
326
329
331
335
336
335
334
333
335
335
333
332
334
339
341
340
338
338
340
341
339
338
339
340
342
341
340
340
341
341
343
344
345
346
346
345
344
345
346
346
346
347
348
350
350
348
347
347
349
346
343
342
343
344
344
341
337
336
337
336
333
332
333
335
335
335
335
338
340
340
338
337
338
340
342
342
339
338
339
342
344
341
340
340
341
339
338
338
337
336
334
334
335
336
336
335
334
335
336
337
336
335
335
336
337
337
339
345
355
366
374
382
392
398
392
375
355
335
320
309
303
300
305
314
321
325
328
330
334
336
334
332
333
335
335
334
334
335
338
341
340
338
338
340
341
340
339
339
340
341
340
339
339
341
342
342
342
343
344
345
344
342
342
343
344
345
346
348
350
349
348
347
347
348
346
342
340
342
343
344
343
339
337
338
338
333
332
333
335
335
334
334
337
339
340
339
338
338
339
339
338
337
338
340
341
343
341
340
340
340
338
337
338
339
336
334
333
335
336
337
335
333
335
336
337
335
334
335
336
337
336
338
344
353
364
372
380
389
396
393
378
358
339
322
310
303
299
303
311
319
322
326
328
333
335
334
332
332
333
334
333
332
332
336
340
339
338
337
339
339
338
336
337
339
340
338
338
339
340
341
341
343
344
345
345
343
342
343
344
344
344
345
347
349
350
348
346
346
348
346
342
339
341
343
344
343
340
337
338
336
332
332
331
333
334
333
332
336
338
339
339
337
337
339
339
338
337
337
338
341
342
340
338
338
339
337
337
338
337
334
331
331
333
335
335
334
332
334
335
335
334
333
334
336
336
335
336
342
351
363
371
379
389
396
395
382
362
342
325
311
302
299
303
311
318
323
326
329
333
335
335
334
335
336
336
335
336
337
339
341
341
339
339
340
341
341
340
340
340
341
340
338
338
340
342
342
343
344
345
345
343
344
344
345
345
343
345
349
350
350
348
347
348
350
348
344
340
341
343
344
343
340
338
338
337
335
333
334
336
336
334
333
336
341
340
338
337
338
339
340
339
338
338
339
341
342
342
341
340
340
339
340
340
339
336
333
333
335
337
337
335
333
334
336
337
336
335
335
336
337
337
338
342
350
361
369
378
387
395
396
385
367
347
330
315
305
301
304
310
317
323
325
329
333
336
336
335
334
335
336
335
334
336
338
340
340
340
340
342
342
341
339
340
341
341
340
339
339
341
341
341
343
344
345
346
344
343
343
345
346
345
346
349
351
350
348
347
347
348
348
345
342
342
343
344
343
341
339
338
338
333
331
332
334
335
335
334
336
339
340
338
336
337
339
340
339
338
339
340
340
342
342
340
340
340
339
338
339
339
337
333
332
333
336
337
336
333
333
335
337
336
334
334
336
337
336
337
341
349
359
368
376
385
395
397
387
369
349
332
316
305
300
301
309
316
320
324
328
331
334
334
332
334
334
334
333
333
333
336
339
339
338
338
339
340
339
338
338
340
341
339
339
339
339
340
340
341
343
345
346
344
342
343
343
344
344
344
347
349
349
347
346
346
347
347
342
340
340
342
343
341
339
337
337
337
334
332
332
336
335
333
332
336
340
341
339
337
339
339
340
339
337
338
340
340
340
341
340
339
339
338
337
338
339
336
334
333
334
336
336
334
333
334
336
337
336
334
335
336
335
335
337
341
348
358
367
376
384
394
397
390
372
354
335
319
307
302
302
309
315
321
325
330
332
335
334
333
334
335
336
334
333
334
336
341
341
340
339
341
341
340
339
340
341
342
341
340
341
342
343
342
342
346
348
347
345
345
345
347
346
344
344
349
352
352
349
347
347
349
349
345
342
342
344
345
344
341
340
339
340
337
334
334
335
336
335
335
337
341
342
340
339
339
341
341
340
338
339
342
342
341
342
341
341
340
339
338
339
340
338
334
332
333
335
336
335
333
333
335
336
335
334
334
336
337
335
335
340
346
356
365
374
383
393
397
390
375
356
337
321
308
302
302
307
314
320
324
329
333
335
336
335
336
336
335
335
335
335
337
339
340
339
340
341
341
341
340
340
340
342
339
338
339
340
341
341
341
344
346
347
345
343
344
346
346
345
345
349
351
351
349
348
347
349
349
346
343
342
342
343
343
341
339
338
339
335
331
332
334
335
334
332
334
338
340
339
338
338
339
339
338
338
339
339
339
338
340
341
340
338
337
336
338
339
337
333
332
333
335
336
334
332
333
336
336
335
334
335
336
336
335
335
338
344
353
362
371
381
391
397
392
378
360
340
323
309
301
300
304
311
317
321
327
331
333
333
333
333
335
336
335
333
333
335
337
339
339
339
340
341
339
339
340
341
342
341
339
340
341
342
340
341
344
346
346
345
344
344
346
346
344
342
346
349
350
348
346
346
348
348
345
341
341
343
344
343
342
341
339
339
336
333
332
335
335
334
333
334
338
340
339
338
338
340
342
340
338
339
340
341
340
342
342
341
340
339
338
338
340
338
334
332
333
336
338
336
334
335
338
339
335
334
334
336
338
337
336
338
344
352
361
370
380
391
397
394
381
364
345
327
311
302
301
305
311
317
322
327
331
333
334
335
335
337
336
335
333
334
336
338
339
339
339
340
340
339
338
338
341
341
341
340
339
339
340
340
340
343
346
346
345
343
343
345
345
344
343
346
350
352
349
346
346
348
348
345
341
340
342
343
341
340
340
339
338
336
332
331
333
334
333
332
333
337
340
339
337
338
339
340
338
337
337
339
340
339
342
344
341
339
337
337
338
339
338
334
331
333
335
336
334
333
333
335
336
335
333
334
336
336
336
335
338
341
349
358
368
377
387
396
395
384
367
348
330
314
304
301
303
310
315
320
325
330
333
334
334
334
335
336
335
333
334
336
338
339
339
339
340
340
340
339
339
340
340
339
338
338
340
340
339
340
344
346
346
343
342
343
344
345
343
342
345
349
350
348
346
347
348
348
346
342
341
342
343
343
342
341
339
339
335
332
331
332
334
334
333
333
336
339
339
338
338
339
340
340
339
338
339
340
339
339
342
342
339
338
338
339
342
342
337
332
332
335
335
336
335
335
335
335
335
334
335
336
338
336
335
338
343
349
357
366
376
386
394
395
386
371
352
333
316
305
301
303
308
314
319
325
330
332
333
333
333
334
335
335
334
334
335
336
339
339
340
341
341
339
338
339
340
340
339
337
338
340
340
339
339
342
346
345
343
341
342
344
344
343
341
344
347
349
348
346
346
347
348
347
343
341
342
343
342
342
341
339
337
336
333
332
334
334
334
333
334
338
342
342
339
338
339
340
340
339
340
341
342
339
340
343
344
342
339
339
339
341
339
336
333
333
335
336
336
335
335
337
337
336
336
335
337
338
336
335
338
343
349
357
367
376
387
395
397
389
375
357
338
320
308
303
304
309
314
319
325
331
332
333
333
333
336
335
336
334
333
334
335
337
339
340
341
341
340
339
339
341
342
340
340
340
340
341
341
340
343
346
348
346
344
344
345
345
345
343
345
348
349
347
346
347
348
348
345
341
341
342
342
341
340
341
340
338
336
333
332
333
334
334
333
334
336
339
338
337
338
339
340
338
336
338
339
339
338
338
342
342
340
340
337
337
339
339
336
333
332
334
335
335
333
334
336
336
336
334
334
337
337
336
335
335
340
346
354
364
374
384
393
397
391
378
361
341
322
308
303
302
306
312
317
323
329
332
332
332
333
334
335
333
332
333
334
336
338
340
341
340
340
340
340
340
341
342
340
339
339
340
341
341
339
342
345
346
344
342
343
344
344
343
342
344
349
349
348
347
346
347
347
346
343
341
343
344
343
342
341
341
339
336
334
332
334
335
335
333
334
336
338
340
339
339
340
341
339
338
338
339
339
339
339
343
343
341
338
337
339
341
342
338
333
333
335
337
336
335
335
336
336
336
335
336
338
339
337
336
337
340
345
352
362
372
383
392
395
392
380
364
344
324
309
303
303
306
312
317
323
330
333
333
333
335
336
337
335
334
334
336
337
338
339
340
341
341
340
339
341
343
343
341
340
340
341
342
341
340
342
347
348
346
344
345
347
347
345
343
344
348
350
348
347
348
349
349
348
345
343
343
343
343
342
343
343
341
338
335
334
334
335
333
332
333
335
339
340
339
339
339
340
339
337
338
339
339
338
337
340
342
340
338
336
336
338
339
337
333
332
334
336
334
333
333
334
335
334
332
333
336
336
335
334
336
340
343
348
357
368
380
389
394
391
381
366
346
327
311
303
302
304
309
315
321
327
330
332
333
334
335
335
334
333
333
334
334
335
337
339
341
340
340
339
338
340
341
341
340
339
340
340
338
338
340
345
346
345
343
343
344
346
345
343
344
348
349
348
347
347
348
349
348
345
343
343
344
343
342
343
343
340
337
334
333
334
335
334
333
334
336
339
339
338
338
339
339
338
338
338
340
339
338
338
341
344
342
339
336
337
338
339
336
333
333
334
335
334
333
334
336
336
335
334
334
336
336
335
336
336
339
343
348
357
368
379
388
395
394
384
369
349
329
314
305
302
303
308
313
320
327
330
331
333
333
336
336
335
333
333
335
336
335
337
340
341
341
338
338
339
341
341
340
339
340
342
341
340
339
340
344
346
345
343
343
345
346
344
343
342
346
350
350
348
347
347
347
347
345
343
343
343
343
341
342
342
340
337
335
334
334
334
334
334
333
334
337
338
337
337
339
339
338
338
338
339
339
337
337
339
343
342
338
336
337
340
341
338
334
334
335
336
334
333
333
335
336
335
334
334
336
337
337
335
335
337
341
346
355
366
377
386
393
394
387
373
354
333
316
307
303
303
307
313
319
326
332
332
332
334
335
336
334
334
334
335
336
335
337
340
342
342
340
339
339
340
341
339
339
339
342
342
340
339
340
344
346
346
344
344
345
345
345
343
343
346
349
349
348
348
348
348
347
345
342
342
342
343
341
342
342
340
337
336
334
334
334
333
333
334
335
337
338
338
338
340
339
337
338
339
340
340
339
337
339
343
342
338
336
337
339
338
337
335
333
335
336
335
334
334
337
337
335
334
334
336
336
336
336
336
338
341
347
355
365
376
385
392
395
390
378
358
337
318
306
303
303
307
312
319
325
330
332
333
333
335
335
334
333
333
335
336
335
337
340
342
341
340
339
339
341
341
340
339
340
341
341
340
339
340
343
345
345
343
343
344
344
343
343
344
347
349
349
347
347
348
348
347
346
344
343
342
341
340
342
342
339
336
335
335
333
333
332
331
332
333
336
337
338
339
340
339
337
336
336
338
338
338
336
338
342
341
337
336
337
338
339
338
334
333
334
335
334
333
333
334
336
334
334
334
335
335
334
334
334
337
340
344
352
362
374
383
390
394
392
381
362
339
320
309
304
302
304
310
317
325
329
330
331
334
335
335
333
333
335
336
336
335
335
338
341
341
339
338
339
341
341
340
339
339
340
340
339
339
340
344
346
346
345
344
345
345
344
344
345
346
350
350
349
349
350
350
349
348
347
344
343
342
343
342
344
341
338
335
335
334
333
333
333
334
335
336
337
338
338
339
340
339
339
339
340
340
339
337
339
343
343
340
337
337
339
339
339
336
334
334
336
335
335
336
337
337
336
335
336
337
338
336
336
336
338
341
344
352
362
374
383
390
395
394
384
365
343
325
312
306
303
304
309
316
324
329
330
331
334
337
338
335
334
334
335
336
335
336
338
341
341
339
338
339
341
340
339
338
339
340
340
339
339
341
344
346
345
344
344
345
345
344
343
344
346
349
348
348
347
349
348
348
347
345
344
343
342
342
343
344
343
338
336
335
335
335
334
335
335
335
335
337
338
340
341
340
338
337
338
339
340
339
338
340
344
346
342
337
337
338
340
339
337
335
335
336
334
333
334
335
335
334
334
335
337
337
335
334
335
337
340
343
349
359
370
380
388
394
394
384
367
346
326
313
306
303
304
307
314
322
327
329
330
333
335
335
334
333
333
335
336
335
336
338
341
341
339
338
338
340
340
338
337
339
340
340
340
340
339
342
345
345
343
343
344
344
343
342
343
345
347
347
347
347
349
349
348
346
346
344
344
342
341
342
344
344
340
337
336
335
334
333
332
334
335
336
336
337
340
343
342
340
339
339
340
341
340
339
340
345
345
341
339
339
341
342
341
339
337
335
335
335
334
335
337
336
335
335
336
337
336
335
334
334
336
339
343
348
358
369
379
387
393
394
387
371
351
331
315
306
302
301
306
315
322
327
329
329
332
335
336
335
333
334
336
336
335
334
337
340
341
339
338
340
342
342
339
338
340
341
341
340
339
340
341
345
345
345
346
345
345
344
344
345
346
348
349
348
348
350
349
348
347
347
346
344
342
342
344
345
343
340
339
338
337
336
334
333
335
337
336
336
338
339
341
341
339
338
339
341
341
338
338
339
342
344
341
339
339
340
341
340
338
336
336
336
335
334
336
338
337
336
334
335
337
337
336
335
335
336
339
342
347
357
368
377
384
392
396
392
376
355
333
317
307
303
301
306
314
321
327
330
330
333
336
336
334
334
335
336
335
334
333
337
341
342
339
337
337
340
341
340
339
339
340
342
341
341
340
343
345
346
345
345
346
345
344
342
343
344
346
347
347
347
348
348
347
346
346
345
343
341
340
341
343
343
339
336
336
335
333
332
332
333
334
335
335
337
339
340
340
338
337
338
339
339
338
338
338
341
343
340
337
336
338
339
338
336
334
334
334
333
332
334
335
336
334
333
334
336
336
335
334
334
335
337
339
343
352
364
374
382
390
394
392
378
357
336
319
309
303
301
305
312
319
325
328
328
331
334
335
333
332
333
335
335
334
334
338
342
343
341
339
339
341
341
340
339
339
341
340
339
338
339
341
343
344
344
345
346
345
343
342
343
345
347
348
348
349
350
350
348
347
347
346
344
342
341
343
344
344
340
337
337
337
335
334
333
335
337
336
336
337
339
340
340
338
338
338
339
341
339
338
339
341
344
341
338
338
340
341
340
338
337
336
335
335
335
335
337
337
336
334
335
337
337
335
335
336
337
339
341
345
354
365
374
383
390
396
394
382
362
340
322
311
304
301
304
311
321
325
329
329
331
335
337
336
334
334
336
337
336
335
337
341
342
340
339
339
341
342
342
340
339
339
340
339
337
337
339
342
343
343
344
345
345
343
342
342
344
345
347
348
349
350
349
348
347
348
347
344
341
340
341
344
345
341
338
337
337
335
333
332
334
335
335
334
336
338
339
339
338
337
338
340
340
338
338
338
339
342
342
339
339
340
340
340
338
336
335
334
334
333
335
336
337
335
334
335
335
336
335
334
336
338
339
340
343
351
362
373
381
389
395
395
384
366
344
326
313
305
302
303
310
318
324
327
329
332
334
336
335
333
334
335
337
335
333
335
339
341
339
337
338
340
340
339
337
339
340
341
340
339
339
341
343
344
344
344
345
345
344
342
343
344
345
346
348
349
352
352
350
347
347
347
346
344
342
342
344
344
342
338
337
337
335
333
332
333
335
335
334
336
338
340
340
338
337
339
340
342
340
338
338
340
344
343
340
337
338
338
338
337
337
335
334
333
334
335
337
336
334
333
335
336
337
336
335
336
337
338
339
342
349
359
369
378
386
395
397
387
368
346
328
315
307
302
303
309
317
323
327
330
332
336
338
337
335
335
336
337
336
335
336
340
342
341
339
340
341
341
339
339
341
341
341
340
340
339
340
342
343
343
343
344
345
343
343
343
345
346
346
347
348
350
350
348
346
347
347
345
342
341
342
343
344
340
336
336
337
335
333
331
332
334
335
334
336
339
341
342
339
337
338
339
339
338
337
337
339
342
342
340
339
339
339
339
338
338
337
335
334
333
334
337
337
335
333
334
337
337
335
335
336
337
337
338
341
347
359
370
377
385
394
398
390
372
350
331
317
308
302
301
307
316
322
326
329
331
334
335
334
333
333
335
335
334
333
334
338
342
340
338
337
340
341
339
338
339
340
341
339
338
339
341
342
343
344
345
346
345
344
343
344
345
345
346
347
348
349
349
348
347
347
348
346
342
340
341
343
344
343
340
338
339
337
334
333
334
335
335
333
334
338
341
341
339
338
338
340
340
338
337
337
339
341
342
338
337
338
339
338
338
338
336
335
332
332
333
335
335
334
334
335
336
336
335
335
336
336
336
337
339
346
357
367
375
383
392
397
390
373
353
334
319
307
301
299
305
313
320
324
328
330
334
336
335
333
334
336
336
334
334
335
338
341
340
340
339
340
341
340
339
340
341
340
339
339
339
341
342
343
343
345
346
346
344
343
343
346
347
347
347
348
349
350
349
347
347
348
346
342
341
342
344
344
342
338
337
339
336
332
330
331
334
334
332
333
337
339
339
338
337
337
339
339
338
337
337
338
341
343
340
338
339
340
338
337
337
336
334
333
333
334
336
336
336
334
335
337
337
336
334
335
338
338
337
338
344
354
365
374
382
391
397
393
378
358
338
322
310
303
302
306
314
321
325
329
331
335
336
336
334
334
337
338
337
335
335
340
343
342
340
340
341
341
341
340
340
342
341
339
338
339
341
341
342
343
344
345
345
343
342
342
344
345
344
346
348
349
349
348
348
349
349
347
342
341
343
345
345
343
339
337
338
337
333
333
332
334
334
333
333
337
340
340
339
337
337
339
340
338
337
337
339
341
342
341
338
338
339
339
337
338
337
334
332
332
333
335
335
334
333
334
336
337
336
335
336
337
337
336
338
343
352
363
372
380
389
397
395
381
361
341
324
311
303
299
303
311
318
323
327
330
334
336
335
334
334
335
335
334
333
334
337
340
340
339
338
340
341
340
339
339
340
340
339
338
339
340
341
341
343
345
346
345
343
342
343
345
345
344
346
348
350
350
348
346
347
348
347
342
339
340
343
343
342
339
337
338
336
332
332
334
335
335
333
332
336
340
341
339
338
338
339
340
339
339
339
340
341
342
341
338
338
338
339
338
339
338
336
333
334
334
335
335
334
334
335
337
338
336
335
335
336
337
336
338
342
351
361
370
379
388
395
395
383
364
345
327
314
304
300
303
311
318
323
327
331
334
337
335
336
335
336
336
334
334
336
338
342
342
339
339
341
341
340
339
340
341
341
340
338
338
340
340
341
343
346
346
346
344
343
343
344
345
345
345
348
350
350
348
347
347
349
348
344
342
342
344
345
344
342
340
340
338
334
332
333
335
335
334
334
337
342
343
340
338
337
339
340
339
337
339
339
339
341
341
340
339
340
339
338
339
339
336
333
332
333
335
336
335
333
333
335
336
334
334
335
336
337
336
337
342
350
360
367
376
386
395
396
385
367
347
330
316
307
302
302
308
315
320
325
329
333
336
335
333
334
335
336
335
334
334
337
340
340
339
339
341
341
341
340
339
340
340
339
338
339
340
341
340
341
344
345
345
343
343
343
345
344
344
344
347
350
349
347
346
346
347
347
343
341
342
343
343
342
340
338
337
337
333
330
331
333
334
334
333
335
339
340
338
337
338
339
340
339
339
339
341
340
341
341
339
339
339
339
337
338
338
336
333
332
334
335
336
335
334
335
336
336
335
335
335
336
336
336
336
339
348
358
368
376
385
394
397
389
372
352
334
318
305
300
301
307
315
321
325
329
332
335
336
335
335
335
336
335
333
334
337
341
341
339
339
341
342
340
338
339
341
342
340
340
339
341
342
340
342
345
346
346
344
343
344
345
345
344
345
347
350
350
348
347
346
348
347
344
341
342
343
344
343
341
338
338
338
335
332
332
333
336
336
333
334
337
340
339
337
337
339
341
339
337
337
338
339
340
341
340
340
339
337
337
338
339
337
333
332
333
336
336
335
333
334
336
337
336
335
335
336
337
337
337
340
346
354
364
374
384
393
397
390
374
355
336
320
308
302
302
307
314
320
324
328
332
334
334
334
335
335
336
335
333
334
337
340
340
340
340
341
341
340
339
340
340
340
339
339
339
341
341
340
341
344
346
346
345
343
344
344
344
343
345
348
350
350
348
346
346
347
347
344
341
341
341
342
342
340
339
338
338
334
331
332
334
336
335
333
335
340
341
339
338
339
341
341
339
338
339
340
341
341
342
341
340
339
338
338
339
340
338
335
334
334
336
336
335
334
335
337
337
335
334
335
336
336
335
336
340
347
356
364
373
382
391
398
392
377
360
340
323
309
302
301
307
313
318
322
327
331
334
335
334
333
335
336
335
333
333
335
338
339
338
339
340
340
339
338
339
340
341
339
339
339
340
340
339
340
343
345
346
344
343
343
345
344
343
344
347
350
350
349
348
349
350
351
347
344
343
344
346
346
344
342
339
340
337
332
333
335
336
335
333
335
340
342
341
339
339
341
341
340
339
339
340
342
342
342
341
340
339
339
339
338
339
338
335
333
333
335
336
335
334
334
336
337
335
334
336
337
338
337
336
339
345
354
363
373
382
392
398
395
382
365
345
327
313
306
302
307
312
317
321
327
331
333
334
333
334
334
335
335
334
334
334
336
338
338
339
341
340
339
338
339
341
340
339
338
339
340
341
340
340
344
346
346
343
342
343
346
347
345
344
347
350
349
348
347
347
347
347
345
341
340
342
343
342
342
340
340
339
336
332
331
333
334
332
331
332
337
339
338
336
337
339
339
338
336
339
339
339
338
340
342
341
340
338
338
337
339
339
335
333
334
335
336
336
334
334
335
336
336
334
334
336
336
335
335
337
343
351
359
368
378
388
395
393
382
366
347
328
314
303
301
303
309
314
319
325
330
333
333
333
334
335
334
334
333
333
335
337
338
339
339
340
341
339
338
339
341
341
340
339
339
340
340
339
340
343
345
345
344
342
342
344
345
344
343
345
349
349
348
347
347
348
348
345
341
340
342
343
342
341
339
338
337
336
332
331
333
334
334
333
333
337
340
338
337
337
338
339
338
337
338
339
339
337
339
341
340
340
338
337
337
340
340
335
332
333
335
335
333
332
333
336
336
334
334
334
336
336
335
334
335
340
348
357
366
376
386
394
394
384
369
350
331
314
304
300
302
309
315
319
325
330
332
333
333
334
336
336
335
333
334
336
338
340
340
340
341
342
340
339
340
341
341
339
338
340
341
341
340
340
343
345
347
344
343
344
345
345
344
343
346
349
352
349
347
348
349
349
346
342
341
342
344
342
340
340
339
338
336
333
332
333
334
333
332
332
336
339
338
337
337
338
339
339
338
338
339
339
338
339
341
341
340
338
337
338
339
340
336
335
334
335
336
335
333
334
336
336
335
334
335
336
337
336
335
337
341
349
356
364
375
385
394
395
386
371
353
334
317
305
301
303
309
314
320
325
330
332
333
334
334
336
337
335
334
334
336
336
337
338
339
341
341
341
340
341
341
342
339
339
339
341
342
340
339
343
345
346
345
343
343
346
345
344
343
344
348
349
348
347
348
349
350
348
343
342
343
344
343
342
342
340
338
337
334
332
333
334
333
332
332
336
339
339
337
338
339
340
338
336
337
338
339
339
339
341
342
340
338
336
337
339
339
336
333
332
335
336
335
333
334
336
337
336
334
333
335
336
335
334
335
339
346
354
363
373
384
393
396
391
378
359
339
320
307
302
303
308
313
318
324
329
332
333
334
335
336
336
335
335
335
336
335
337
339
339
340
340
339
338
339
340
340
339
338
339
340
342
340
339
341
345
346
345
343
344
345
346
345
342
344
348
350
349
347
347
348
349
347
344
342
343
344
343
342
343
342
339
337
335
333
334
335
335
334
335
338
341
341
340
338
340
340
339
338
339
340
341
340
340
344
345
342
338
336
337
340
340
336
333
333
335
336
335
333
334
337
336
336
334
335
336
336
334
333
336
340
345
352
361
371
382
392
396
392
379
362
342
323
308
302
302
305
311
317
325
330
332
332
333
335
336
336
335
334
333
335
335
337
338
340
341
340
340
339
339
341
340
340
339
340
341
341
341
340
343
347
347
345
343
344
346
345
343
342
343
348
350
349
348
348
348
349
348
345
343
344
343
342
341
341
340
337
336
333
332
333
333
332
332
333
335
338
338
337
337
338
339
338
337
336
337
338
337
336
340
341
339
336
335
336
338
339
336
332
332
334
335
334
332
332
333
335
334
332
333
335
336
335
333
334
339
344
351
360
370
382
391
395
393
381
365
345
324
310
302
301
304
310
316
321
328
331
332
333
334
334
335
333
332
333
335
336
336
338
340
341
341
339
338
339
340
341
339
338
339
339
340
339
338
340
344
347
345
342
342
343
344
343
343
343
347
349
348
347
347
349
349
347
345
342
342
341
342
341
342
341
339
336
334
332
333
333
333
333
334
335
337
338
338
339
340
339
338
337
337
339
339
338
338
341
343
341
338
338
339
341
340
338
334
334
335
335
334
334
334
336
336
335
334
334
335
336
336
335
335
338
342
349
359
368
378
387
393
393
383
368
349
329
313
305
303
306
311
316
321
327
332
331
333
334
335
335
334
332
334
336
336
336
338
340
342
342
340
339
339
341
341
340
339
339
341
341
340
339
340
344
347
345
344
344
345
345
344
342
344
347
349
349
347
347
348
348
347
345
343
343
342
341
341
342
342
339
336
336
332
333
333
333
332
332
334
336
338
339
339
339
340
340
339
338
339
340
340
339
341
343
342
340
339
340
340
340
339
334
333
334
336
336
333
334
335
335
335
334
335
336
336
335
334
335
338
341
347
356
367
378
387
393
394
386
372
352
332
315
305
301
304
309
314
320
326
330
331
332
334
334
334
334
334
334
335
335
334
338
339
342
341
339
338
338
339
340
338
338
338
340
341
340
338
339
343
345
344
344
344
345
345
344
343
343
346
349
350
348
347
348
349
349
348
343
342
342
342
343
342
342
340
337
336
334
333
333
332
333
333
334
336
337
338
339
339
340
339
338
339
340
341
340
339
341
343
342
339
338
339
340
341
339
335
333
334
335
335
333
333
335
336
334
333
333
335
335
335
334
335
338
341
346
354
364
375
385
392
395
389
375
357
336
318
307
303
303
308
314
319
325
330
332
333
335
335
335
335
334
335
336
335
335
337
339
341
341
339
337
339
339
340
339
338
338
340
340
340
338
339
343
345
344
343
343
346
346
344
343
344
346
349
350
348
347
348
349
348
347
345
343
343
343
342
343
342
339
336
336
334
334
335
334
334
334
335
336
338
338
339
339
340
339
338
338
339
340
338
337
340
343
342
339
337
338
339
341
340
336
334
334
335
335
333
333
335
336
335
334
334
335
335
335
333
334
337
341
346
352
363
373
383
391
395
391
377
359
337
320
308
304
303
305
310
317
324
329
330
332
335
336
335
334
333
333
335
335
336
337
339
342
342
341
339
339
340
339
339
339
340
341
342
340
338
338
342
345
344
343
343
344
345
345
343
343
345
348
350
348
347
347
348
347
346
344
344
343
342
341
342
343
341
338
336
335
334
335
335
333
333
335
337
339
340
340
340
340
339
338
339
340
341
340
339
340
345
343
339
337
337
339
339
338
336
335
335
336
336
335
335
335
336
335
336
336
336
335
334
334
336
338
341
345
352
362
373
383
391
395
393
382
364
343
324
310
304
303
306
310
316
323
329
331
331
334
335
336
334
333
334
335
337
336
337
339
341
341
340
339
339
340
341
341
339
339
340
342
341
339
340
342
345
344
343
343
345
346
345
343
344
345
349
350
349
349
349
350
349
348
346
345
344
343
343
343
343
341
337
335
334
333
334
333
333
334
335
336
337
338
339
340
341
339
338
338
339
339
338
337
338
342
343
340
337
338
340
341
339
337
334
334
335
334
334
334
335
335
335
334
334
335
336
335
334
334
336
339
343
350
361
372
381
389
394
395
384
367
346
327
313
306
302
304
309
317
324
329
330
331
334
337
336
334
334
336
336
335
334
336
340
342
341
339
338
338
340
340
338
337
338
340
340
340
341
340
342
345
345
344
343
345
345
344
343
343
345
348
349
348
347
347
347
347
346
345
343
342
341
342
342
343
342
338
335
334
333
333
332
332
333
335
336
337
337
338
339
339
338
337
337
339
339
339
338
338
342
342
339
336
336
338
339
338
336
333
333
333
333
333
334
336
336
335
334
334
336
336
336
336
335
336
339
342
348
360
370
380
388
394
395
386
370
350
331
315
306
302
302
306
314
322
327
329
330
333
335
335
334
333
333
334
335
336
336
338
341
342
340
338
338
340
340
339
339
339
340
341
340
339
339
341
343
345
344
345
346
346
344
343
343
344
348
349
349
348
349
349
348
347
347
345
344
343
341
342
343
342
339
336
336
335
334
334
333
333
335
336
337
339
339
340
340
340
340
339
340
340
339
338
339
341
343
340
337
337
339
340
339
338
335
334
334
334
334
334
335
336
335
335
334
335
336
335
334
334
335
338
341
346
356
368
377
385
391
393
387
373
352
332
316
307
303
302
306
313
321
328
330
331
333
335
336
335
334
334
335
336
335
335
338
341
341
340
339
339
340
341
340
340
340
341
340
340
340
340
341
343
344
344
345
345
346
345
344
343
344
345
348
349
348
348
348
347
346
346
343
342
342
341
342
342
342
338
335
335
334
334
332
331
331
333
334
335
337
338
339
338
336
336
336
338
338
337
336
338
341
342
340
337
337
338
339
339
338
335
333
334
334
334
334
335
336
335
333
334
336
337
336
335
334
336
338
340
345
354
365
375
384
391
395
390
375
355
336
319
307
303
301
305
313
319
325
329
329
332
335
335
335
333
334
335
336
335
335
338
341
342
341
339
339
340
341
339
339
340
340
340
339
338
338
340
344
344
344
344
344
344
344
343
343
344
346
347
347
347
349
350
348
347
347
346
344
342
341
342
343
344
340
337
335
334
333
333
332
332
333
333
334
337
339
339
339
338
337
337
339
340
340
339
338
341
344
343
339
337
338
339
339
339
336
334
334
334
334
335
336
336
336
335
335
336
336
336
336
336
337
338
340
344
353
364
375
383
391
396
393
381
362
340
323
311
304
302
304
312
321
326
329
329
332
335
336
335
334
335
336
336
335
334
336
339
341
340
339
339
341
342
341
340
340
341
341
340
339
339
340
343
345
345
345
345
345
346
346
345
345
346
348
348
348
348
348
347
347
347
346
344
342
342
342
343
343
341
338
337
335
334
333
332
333
334
334
334
335
338
340
340
338
338
338
340
340
339
337
336
338
342
341
338
336
338
339
339
337
336
335
335
334
334
334
335
335
334
333
334
336
336
335
334
335
336
337
339
342
350
362
372
381
389
396
395
383
364
343
325
312
305
302
303
310
318
324
329
330
332
334
335
335
334
334
335
336
334
334
336
340
341
339
338
339
341
341
341
339
339
340
341
340
340
340
340
342
344
344
344
344
344
343
343
344
345
345
346
347
347
348
349
348
347
347
346
344
342
342
342
344
344
341
337
336
336
334
333
332
333
334
335
335
336
339
340
340
339
338
337
339
339
339
338
338
339
342
342
339
338
338
338
337
337
336
334
334
334
333
333
334
335
334
333
334
335
336
334
333
334
336
337
339
341
349
359
369
378
387
395
395
385
368
346
327
313
305
302
303
309
316
322
327
330
332
336
336
335
333
334
335
336
334
333
335
339
342
341
340
340
340
340
339
337
338
340
341
341
339
339
341
343
345
346
344
344
343
343
342
343
344
345
346
348
347
347
348
347
347
347
347
344
341
341
342
343
344
342
338
337
337
335
334
332
333
334
334
334
336
338
339
340
339
338
338
339
340
339
338
338
340
343
343
340
338
339
339
339
339
338
336
334
334
334
334
335
335
334
334
336
337
338
335
335
336
337
337
338
340
347
358
368
378
386
394
396
388
371
350
330
315
306
302
301
309
315
322
326
328
331
335
336
335
334
333
335
336
336
335
336
339
341
341
339
339
340
341
341
340
340
341
341
341
340
340
341
342
343
344
345
345
346
346
345
345
345
345
346
348
350
350
349
348
348
348
349
346
343
341
341
344
344
343
339
337
337
336
333
332
333
336
336
335
336
339
340
341
338
337
338
340
340
339
339
338
340
343
343
341
340
340
340
340
340
339
337
337
335
335
336
335
336
335
335
336
337
337
336
335
336
336
338
339
340
346
357
368
377
384
394
398
391
374
354
335
320
310
303
301
307
315
322
327
329
331
333
335
335
334
335
336
336
336
335
336
339
341
341
340
340
341
341
340
341
341
342
342
340
340
341
341
342
344
345
345
346
346
345
344
345
346
346
346
348
350
351
351
349
347
347
348
345
343
341
341
343
345
344
339
337
337
335
334
332
333
333
334
333
334
338
341
341
340
339
339
340
341
340
339
339
340
342
344
341
338
339
340
339
339
339
337
336
335
336
335
337
336
335
334
335
337
337
336
335
335
337
337
339
340
345
355
365
376
385
393
396
391
376
357
338
322
311
303
301
306
314
321
325
329
330
333
335
335
336
336
336
336
336
335
336
339
341
341
339
339
340
341
339
339
339
340
342
340
338
339
340
341
343
344
344
345
344
344
344
344
346
345
346
348
351
350
349
348
347
347
347
346
342
341
341
343
343
342
339
337
337
336
334
334
334
334
334
333
333
336
339
340
338
339
338
340
341
340
339
340
340
341
342
340
339
339
339
339
338
338
337
335
333
332
333
335
336
335
334
333
335
338
337
335
335
337
337
337
339
344
353
364
374
382
391
397
394
380
361
341
325
312
303
301
305
312
320
326
329
331
335
336
335
333
333
335
335
334
334
334
337
341
341
339
340
339
341
339
339
339
340
340
339
339
338
339
342
344
345
344
345
345
345
345
345
346
346
345
347
349
350
350
348
347
347
349
348
345
342
343
343
343
342
340
337
338
337
334
332
333
335
335
335
334
337
340
340
339
339
339
339
339
339
338
338
339
340
341
341
339
340
340
339
338
338
338
335
334
333
333
335
336
335
334
334
335
336
336
335
335
335
336
337
340
344
353
363
372
380
388
396
395
383
365
345
327
314
305
301
303
311
318
323
327
330
333
337
337
335
335
336
336
336
335
335
338
341
342
342
341
342
342
341
340
340
342
342
342
341
340
340
340
341
343
344
345
345
343
342
342
344
344
344
345
348
350
349
347
346
347
349
348
343
341
342
343
345
344
341
340
340
338
334
332
333
335
336
335
334
337
340
342
340
338
338
339
339
339
338
337
339
340
342
342
340
339
338
339
337
337
337
336
333
332
333
334
335
334
333
333
334
335
335
334
334
335
336
334
336
340
349
359
369
378
386
394
394
384
367
347
330
314
304
300
301
309
315
320
324
328
332
335
334
333
333
333
334
334
333
332
335
338
339
338
339
339
340
339
339
338
340
341
339
338
339
340
342
344
343
345
346
345
345
343
343
344
345
344
346
349
351
350
348
347
347
349
349
345
342
341
343
343
342
340
338
337
337
334
331
332
334
335
334
333
335
339
340
339
337
338
340
341
339
338
338
339
339
341
341
340
339
340
340
338
338
339
337
335
334
335
336
337
336
334
334
336
336
335
335
335
335
336
336
337
340
348
358
368
376
384
393
396
388
371
352
334
318
307
301
302
309
316
320
324
328
332
335
333
333
334
335
336
334
333
334
337
340
340
340
339
340
340
339
338
340
341
341
340
338
339
341
341
341
343
345
346
346
345
344
344
345
345
344
346
349
350
349
347
347
347
347
347
344
342
341
343
344
343
342
339
338
338
335
332
333
335
336
335
334
335
339
340
339
339
339
340
341
340
339
340
340
341
342
344
342
341
340
339
338
338
339
337
335
335
335
336
336
335
334
334
335
336
336
335
334
335
336
335
336
340
346
355
364
373
384
393
396
389
374
355
337
320
307
301
301
306
314
320
324
329
331
334
335
333
334
335
336
335
336
336
337
340
339
339
340
340
340
340
338
338
340
340
340
339
340
341
341
339
342
343
345
345
344
342
342
343
344
344
344
348
349
349
348
347
347
348
349
346
342
341
343
343
342
341
338
338
338
335
333
333
334
335
334
334
335
339
341
339
338
339
340
342
341
339
339
342
341
342
343
342
340
339
339
338
340
340
337
333
332
333
336
336
335
334
334
336
337
336
336
336
336
336
335
335
338
344
354
363
373
382
392
396
392
377
358
339
322
309
302
301
306
314
320
323
328
332
334
336
335
335
335
336
334
334
335
336
339
340
340
340
342
343
342
341
340
340
341
340
338
338
340
341
340
342
345
346
346
345
343
345
346
346
346
345
347
350
351
349
348
348
348
349
346
343
343
343
343
341
342
338
337
337
335
332
331
332
333
332
332
334
339
341
338
337
337
338
339
339
338
338
339
339
340
341
341
340
339
339
338
339
340
338
335
333
332
335
337
336
334
334
337
337
336
335
335
336
336
336
336
338
343
352
361
370
379
389
396
393
380
362
343
325
310
302
301
306
313
318
322
327
331
335
336
336
335
336
335
334
334
335
337
338
340
339
339
340
340
339
337
339
341
341
339
337
338
340
341
340
340
343
345
346
344
342
343
344
345
343
342
344
348
348
348
346
346
347
347
345
341
340
341
342
342
342
341
339
337
335
333
333
334
334
333
333
333
337
340
339
337
337
338
339
339
337
338
340
340
339
341
341
341
340
339
338
338
339
338
334
332
333
335
336
336
334
335
336
337
337
336
335
336
335
336
336
339
346
352
361
371
379
389
395
393
382
365
346
328
312
303
300
304
311
317
322
327
331
333
335
334
334
335
336
335
334
334
336
338
340
340
340
340
340
339
338
339
341
341
341
340
340
340
341
340
340
343
345
346
344
343
343
344
345
344
343
346
349
350
349
347
347
348
348
346
342
341
343
343
342
341
340
339
338
337
334
332
333
334
334
333
333
336
339
338
337
337
339
340
338
337
337
339
340
339
340
341
340
339
338
337
338
340
339
335
333
333
335
336
335
334
335
337
337
335
334
334
336
336
336
334
337
342
350
359
368
378
387
395
395
385
370
352
332
315
304
299
302
309
315
320
325
330
333
334
334
334
335
336
336
335
335
335
336
338
339
339
340
340
340
339
339
341
342
340
339
339
340
342
341
341
343
345
346
344
344
344
345
345
343
343
345
349
350
349
347
347
348
348
346
343
342
342
343
342
342
341
339
338
336
333
331
333
334
333
332
334
337
339
339
337
337
338
339
338
337
338
340
340
340
340
343
342
340
338
337
338
340
340
336
333
333
335
336
335
334
334
335
336
336
335
334
336
337
337
336
339
342
348
356
366
377
387
395
397
388
373
354
336
317
305
301
304
311
315
319
325
329
332
333
333
333
334
335
335
334
335
335
336
338
339
340
341
341
339
338
338
340
341
341
339
339
340
340
340
340
343
346
347
345
344
344
345
344
344
343
346
349
351
350
348
348
349
350
349
344
342
343
344
343
342
342
341
339
338
334
333
334
336
335
333
334
336
339
339
339
339
340
341
341
339
339
340
341
340
340
342
342
340
338
338
338
341
341
337
333
333
335
336
336
334
334
335
336
335
334
335
336
337
336
335
337
341
347
356
365
375
385
392
395
388
375
358
338
320
306
301
302
307
314
319
325
331
333
333
334
334
335
336
336
334
334
335
336
337
339
340
341
341
340
339
340
341
342
342
341
340
342
343
341
340
343
346
347
345
344
344
345
346
346
344
345
349
352
349
347
347
348
349
347
343
342
343
343
343
341
342
341
339
338
335
333
334
335
333
332
333
335
340
340
339
338
339
339
339
338
339
341
342
339
340
341
343
341
340
337
338
340
341
338
333
332
334
336
336
335
334
335
336
336
334
334
335
336
335
334
336
340
346
353
363
373
383
392
396
392
380
362
342
324
310
303
302
306
312
318
324
330
332
333
333
335
336
336
335
334
334
337
337
338
338
339
340
340
339
338
338
340
340
339
338
339
340
341
340
339
342
346
347
345
343
344
345
346
345
344
345
350
352
350
348
347
348
349
348
345
342
342
342
342
342
342
340
339
337
334
333
333
334
334
333
333
335
338
340
340
338
338
338
337
337
337
338
340
339
338
341
342
340
338
337
338
339
340
336
332
332
334
335
334
334
334
335
336
335
334
334
336
337
337
335
335
340
345
353
361
371
382
391
397
394
382
366
346
327
311
304
302
305
311
317
323
329
331
331
332
333
335
337
335
334
333
334
335
337
339
340
341
341
339
338
338
340
341
339
338
340
341
341
339
339
341
344
345
344
343
343
344
345
344
343
343
346
349
348
346
346
347
347
346
345
342
343
343
342
341
341
340
339
337
334
332
333
334
334
332
333
335
338
339
338
338
338
339
339
339
340
341
341
339
339
342
343
342
339
338
338
339
340
337
333
333
334
335
334
333
333
335
336
335
335
334
335
336
335
334
335
339
345
351
359
369
379
389
396
395
384
368
348
329
313
304
302
306
311
317
323
329
332
334
335
335
336
337
336
335
335
336
336
337
339
341
343
342
342
339
339
340
341
342
341
341
341
341
340
339
340
345
347
346
344
344
344
344
343
343
342
346
349
350
348
347
348
348
348
346
342
342
342
342
342
342
341
338
336
335
333
333
334
334
333
333
334
336
338
338
339
339
339
338
338
338
339
340
339
338
341
343
341
338
337
338
340
340
338
334
333
335
337
336
333
333
334
335
334
334
333
334
335
334
334
333
337
342
349
357
367
377
386
393
394
385
370
351
331
314
304
301
303
308
313
319
324
330
330
332
334
334
334
333
333
333
335
335
336
338
339
340
340
340
339
340
340
341
340
339
339
340
341
341
340
341
344
347
346
344
344
345
347
345
343
343
347
351
350
348
347
348
349
349
347
344
343
343
344
343
343
344
341
338
336
334
335
335
334
333
333
335
338
340
339
339
339
340
340
339
338
340
341
339
338
340
344
341
339
337
338
339
340
338
334
333
335
336
335
334
334
335
336
336
336
336
336
338
337
334
334
337
341
347
355
365
375
385
392
395
388
374
355
334
317
306
302
303
307
312
318
324
329
331
333
334
336
335
333
332
334
335
337
336
337
339
341
340
340
339
339
340
341
340
339
339
340
340
339
339
339
344
346
345
343
343
344
345
344
343
343
345
351
349
349
349
349
348
348
348
344
342
342
342
341
341
342
339
337
336
333
333
333
333
333
333
333
335
339
339
339
339
340
339
339
339
339
340
339
339
340
343
342
339
337
337
338
340
340
335
333
334
335
335
334
334
335
336
336
335
334
335
335
335
334
335
338
342
345
353
363
374
385
393
395
390
377
359
338
319
307
303
302
306
312
318
324
330
331
332
333
335
335
334
333
333
335
336
335
337
340
341
342
342
340
340
340
341
341
340
340
341
342
340
340
340
343
346
346
344
344
346
346
345
344
345
346
349
350
348
348
349
349
348
347
344
342
342
342
342
343
344
342
339
337
335
335
336
335
333
332
333
336
338
338
339
340
341
339
339
338
340
340
340
339
340
345
344
341
338
339
340
340
340
337
335
336
336
336
336
336
337
337
337
336
336
337
338
337
336
336
338
341
345
352
363
374
383
392
397
394
381
364
342
322
309
303
302
304
311
317
324
331
332
333
335
336
336
335
334
334
335
336
335
338
340
342
342
340
339
338
340
341
340
339
338
340
341
340
338
339
343
345
346
345
344
344
345
345
344
344
345
348
350
349
349
349
349
349
348
347
345
345
344
343
343
343
342
339
337
335
334
334
335
335
334
335
336
338
340
340
341
341
340
339
340
340
340
340
340
339
344
345
343
340
339
340
341
341
338
336
336
336
335
334
335
337
337
336
335
336
338
337
336
335
337
337
341
345
352
362
373
383
390
395
394
384
367
346
326
313
305
303
305
310
317
322
327
330
332
334
335
335
334
333
333
335
336
336
336
340
341
341
340
339
339
341
342
340
339
339
340
341
340
339
339
342
346
346
344
343
343
345
345
344
343
345
348
349
348
348
348
348
347
347
345
343
342
341
341
342
343
343
339
337
336
334
333
333
332
333
334
335
337
338
338
338
338
338
336
336
338
339
338
338
339
341
342
340
338
337
338
340
339
337
334
334
334
334
334
334
335
335
335
334
335
335
336
335
334
335
337
340
342
348
359
370
380
389
396
397
388
372
352
331
315
305
303
305
310
317
323
329
331
333
335
337
337
336
335
336
337
338
337
337
339
341
342
341
339
339
339
340
341
340
341
341
341
341
342
342
344
348
348
347
347
347
346
347
345
345
346
349
350
349
348
349
350
350
351
349
346
344
343
342
342
344
344
341
337
336
333
334
333
332
333
334
336
338
338
339
340
341
340
339
339
340
341
340
338
338
341
343
340
338
338
339
339
340
337
335
334
335
336
335
335
335
336
335
334
333
335
335
335
335
335
336
339
341
347
357
368
379
386
392
394
388
373
353
332
316
307
303
304
308
314
321
326
329
330
333
336
337
336
333
333
335
335
335
334
337
340
342
341
339
339
340
340
340
339
339
340
341
340
339
338
340
345
346
346
345
345
346
345
343
342
344
346
347
347
347
348
349
347
347
346
345
343
342
342
342
343
343
339
336
335
334
333
334
334
333
334
336
337
339
339
339
339
339
339
339
339
340
338
337
338
341
344
342
339
337
338
339
340
339
336
335
336
337
336
335
334
335
335
334
335
336
336
336
335
335
336
338
341
346
355
365
377
386
393
395
390
376
356
336
319
308
304
303
306
312
319
326
330
331
334
336
337
335
334
335
336
336
336
335
338
341
342
341
340
339
340
341
340
339
339
341
341
340
339
339
340
343
345
346
345
345
347
346
345
345
346
349
351
350
350
349
350
349
348
347
345
343
342
342
343
344
344
342
339
337
336
334
333
333
334
335
336
337
339
340
341
341
340
339
340
342
342
341
339
339
342
345
342
338
337
339
340
340
338
336
335
336
336
335
335
336
336
336
335
336
336
337
335
335
336
337
339
341
345
353
365
376
385
393
398
395
382
362
342
322
312
307
304
306
312
320
326
330
331
333
335
337
336
335
335
336
337
336
335
336
339
341
341
340
339
340
341
341
341
340
341
341
341
339
339
341
345
346
345
345
345
346
344
343
343
344
347
349
349
349
349
350
350
349
348
346
344
344
342
343
344
344
340
337
337
336
335
334
334
334
337
337
337
339
341
340
341
340
340
340
341
341
340
339
339
340
343
342
339
338
340
342
342
338
335
333
333
333
334
334
335
335
335
334
334
335
336
336
336
336
336
338
339
343
351
362
373
383
390
395
394
383
364
343
324
311
305
302
304
310
319
323
328
329
332
335
336
335
333
333
334
335
335
334
337
340
342
341
340
340
340
342
340
339
339
341
341
341
340
339
340
343
345
344
344
344
345
344
343
344
343
345
348
349
349
349
348
347
347
347
346
344
342
342
342
343
344
341
338
337
336
335
333
332
333
334
335
335
336
339
340
341
340
338
340
339
340
339
338
338
339
343
344
340
339
340
341
340
339
337
335
335
336
336
336
336
336
336
335
335
336
336
336
335
336
337
337
339
343
350
362
372
382
391
396
395
385
367
347
328
314
307
303
304
310
317
324
328
330
332
335
338
338
336
334
335
336
335
333
335
339
341
340
339
338
339
340
340
339
340
340
340
340
339
339
340
342
346
345
344
344
345
345
344
344
345
347
348
349
349
349
350
350
348
347
346
345
343
342
342
343
344
342
339
338
338
335
333
333
333
335
337
337
338
339
340
342
341
339
338
339
340
339
339
339
340
343
345
342
340
340
340
339
339
338
336
336
335
335
336
336
336
335
334
335
336
337
336
335
336
337
338
340
341
348
358
370
378
386
393
396
388
371
350
330
316
307
303
304
308
316
323
327
330
331
335
338
336
335
334
335
335
335
334
337
340
342
341
341
340
340
342
341
340
340
341
341
340
339
339
340
341
343
345
345
345
346
346
345
345
346
346
347
348
348
350
350
349
348
347
347
345
343
341
342
342
343
343
340
338
339
337
334
333
333
334
336
335
336
339
341
341
340
340
339
340
341
339
340
341
340
342
343
340
338
339
339
339
338
338
336
336
336
334
335
336
336
336
336
336
337
337
337
336
338
338
338
339
341
347
356
368
378
385
394
397
390
375
353
333
319
309
304
303
308
315
322
327
330
332
335
337
336
336
336
336
338
336
335
335
340
342
341
340
341
343
343
341
340
341
342
342
341
340
341
342
342
344
345
345
346
346
345
344
344
345
346
347
348
349
349
349
348
348
349
348
346
343
341
342
343
344
343
339
337
338
336
334
332
332
334
336
336
335
337
339
340
340
339
339
340
341
340
339
339
340
342
344
341
338
339
339
339
340
338
337
336
334
334
335
335
335
336
335
335
336
336
336
336
336
338
337
337
340
345
356
367
377
385
393
398
393
377
356
336
320
309
303
302
305
313
320
325
329
332
335
337
337
336
335
336
336
334
335
335
338
342
342
341
340
341
342
341
340
339
340
341
341
339
340
341
342
343
344
345
346
347
345
344
343
344
345
345
348
348
349
350
349
347
346
348
346
343
342
342
344
344
343
340
338
338
337
334
332
333
336
337
336
335
338
340
340
340
340
340
340
340
339
339
338
339
341
343
342
340
340
341
340
338
338
337
335
333
334
335
335
335
334
333
334
335
337
337
337
335
337
338
338
340
344
353
364
374
381
389
396
393
380
360
339
324
311
304
302
304
311
318
324
327
331
334
337
336
336
334
335
336
336
335
335
339
342
342
341
340
341
342
341
341
342
342
342
341
340
340
340
340
342
344
347
346
346
345
344
345
347
347
347
349
349
350
350
349
348
349
348
346
344
343
343
344
346
344
341
338
338
337
336
334
334
335
337
336
335
338
341
341
340
339
338
340
340
340
340
340
341
342
342
341
339
339
339
338
338
338
338
336
334
334
334
336
336
336
335
335
337
336
336
335
335
336
336
336
338
342
352
363
373
381
390
397
395
383
366
345
327
313
306
302
304
311
319
324
329
331
334
337
336
335
335
336
337
335
335
335
337
341
342
341
340
341
342
342
340
341
341
342
340
339
340
341
342
343
344
345
346
345
345
343
344
345
345
345
346
348
350
350
349
348
348
349
347
344
343
342
342
344
343
341
338
338
337
335
332
331
333
334
334
334
337
341
341
339
337
337
338
338
338
337
337
337
339
342
342
339
338
338
339
338
338
338
335
333
333
334
336
336
336
335
334
335
335
336
334
334
336
336
335
338
341
350
360
369
378
388
396
396
387
368
348
329
315
307
302
304
310
317
321
324
328
332
335
336
334
334
336
335
335
334
335
336
340
341
340
339
339
341
340
339
339
341
342
341
340
339
340
341
341
344
345
346
345
345
344
344
345
345
344
346
348
350
350
349
349
349
349
348
345
342
342
343
345
344
342
338
337
337
335
333
333
335
336
335
334
336
338
340
339
338
338
339
339
338
337
337
338
339
342
343
342
340
339
339
338
338
338
337
334
333
334
335
336
336
335
335
336
336
336
336
336
336
337
336
339
342
350
359
369
377
386
395
397
388
373
351
333
319
309
304
303
309
316
321
326
330
334
336
336
335
334
336
337
336
334
334
337
340
342
340
340
341
341
341
340
339
341
341
340
338
338
339
340
341
343
345
347
347
345
343
343
345
345
344
345
348
349
349
348
347
347
348
348
344
342
342
343
343
342
341
339
338
338
335
332
332
333
334
334
336
336
338
340
339
338
338
339
339
339
338
338
339
340
341
342
341
339
339
339
338
338
338
336
334
333
332
334
335
334
334
334
336
337
337
336
335
336
337
337
337
340
347
357
367
375
384
393
396
390
374
355
336
320
307
301
302
307
315
320
326
330
333
335
335
335
335
336
336
335
334
334
336
340
341
340
340
341
342
341
340
338
339
341
341
340
340
340
340
340
342
344
345
345
344
342
343
344
345
346
346
347
349
350
349
348
348
349
349
346
343
342
343
345
344
343
340
338
338
335
333
332
333
335
334
332
334
338
339
340
337
337
339
339
339
338
338
339
339
340
342
341
340
340
339
339
339
339
337
334
333
333
334
334
334
334
335
336
335
334
334
334
335
335
335
335
338
344
354
364
373
383
392
397
392
377
358
339
322
309
302
301
306
312
318
322
326
329
332
333
333
334
334
336
335
334
334
335
337
339
339
339
340
340
339
339
339
340
341
340
339
339
341
342
342
341
343
344
345
343
341
341
343
344
344
344
346
348
349
348
347
348
347
348
344
341
340
342
342
341
341
339
338
337
335
333
333
335
336
336
335
336
339
340
339
339
339
340
340
340
340
339
340
340
341
342
342
340
339
339
338
339
340
337
334
332
333
334
336
335
333
333
334
335
334
334
335
336
337
336
336
338
344
353
363
372
382
391
398
394
381
363
343
326
311
304
302
305
312
320
324
329
332
334
335
336
336
336
336
335
334
335
336
339
340
339
340
340
340
339
338
338
340
340
339
339
339
339
340
339
340
343
345
345
344
343
344
345
345
344
343
346
349
349
347
346
347
348
348
345
342
341
341
343
343
341
340
338
337
335
333
333
334
334
333
332
333
337
339
339
337
338
340
341
339
338
340
340
340
340
342
342
341
340
338
337
339
340
338
334
333
333
335
336
335
334
335
336
337
335
334
333
335
337
337
336
339
344
352
360
369
379
388
394
393
382
365
346
327
313
304
301
304
311
317
322
328
332
334
333
333
334
335
335
335
334
335
336
338
339
339
339
341
341
340
339
339
340
342
341
339
338
339
340
339
340
342
344
345
344
343
344
344
345
343
342
345
349
350
348
347
347
349
349
346
341
340
342
343
343
342
340
338
338
336
333
333
335
334
332
332
332
336
339
339
337
337
338
339
338
337
338
339
339
338
340
342
340
339
338
337
338
340
339
335
334
334
335
335
334
333
334
335
336
335
336
336
337
337
337
336
338
342
350
359
369
378
388
395
396
386
369
350
331
315
305
302
304
309
315
320
326
330
331
333
333
333
334
334
333
333
334
335
336
338
339
339
339
340
340
340
341
342
341
340
339
339
341
341
339
339
343
346
345
343
342
342
344
344
344
344
345
348
349
348
345
346
347
347
345
341
340
340
342
342
342
342
339
338
336
333
332
334
335
335
332
332
336
339
339
338
339
340
340
339
338
338
340
341
340
340
342
341
339
337
338
339
339
340
336
333
333
335
336
335
335
335
336
336
335
335
336
337
338
337
336
338
342
348
357
367
377
386
394
396
387
373
354
334
317
305
302
304
309
314
319
325
330
333
334
336
337
338
339
337
336
337
338
339
340
342
342
343
343
342
341
340
341
342
341
339
340
342
343
342
340
343
346
346
344
344
344
345
345
344
344
346
349
351
349
348
348
348
350
347
343
341
342
343
342
341
340
339
338
337
333
332
332
332
331
331
333
335
339
338
337
337
338
338
337
337
337
338
339
338
338
341
341
339
339
338
337
339
339
335
332
331
333
334
335
334
335
336
337
336
335
335
336
336
335
335
337
340
346
354
364
374
383
392
395
390
376
358
339
320
307
303
304
308
313
317
322
329
332
333
333
333
334
335
334
334
334
335
335
338
339
340
340
340
340
340
339
340
341
340
339
340
341
341
340
340
343
345
346
344
342
344
345
345
345
343
345
350
351
350
347
347
348
348
348
345
343
344
344
344
343
342
341
339
338
335
334
334
334
333
334
333
335
339
340
339
338
340
341
340
339
339
340
340
339
339
342
342
339
338
336
337
340
341
338
334
334
335
337
336
335
336
336
335
335
334
335
337
337
336
335
337
341
346
353
363
373
383
391
396
392
379
361
340
321
309
303
303
306
310
316
322
327
330
332
334
335
335
335
333
333
334
336
336
336
338
339
341
341
340
339
341
342
342
341
340
340
341
342
342
340
343
346
347
346
345
345
346
347
346
344
344
348
351
350
348
349
348
348
348
346
343
341
343
343
342
343
342
339
338
336
334
334
334
333
333
335
337
339
340
339
339
340
339
339
338
339
339
340
339
341
344
344
341
339
339
340
341
341
338
335
334
336
337
337
336
337
337
338
338
336
337
337
337
336
335
337
341
345
354
361
372
382
391
396
393
381
365
348
327
311
303
302
305
311
316
322
328
331
333
334
335
336
336
335
334
336
337
337
337
338
340
341
340
341
340
340
341
342
341
340
339
341
341
341
340
342
345
346
346
344
344
344
345
344
343
344
348
350
349
348
348
348
349
348
345
343
342
343
343
342
343
342
339
337
336
334
334
335
335
335
334
335
339
340
339
339
340
341
340
338
338
340
340
340
339
342
344
342
340
339
340
341
341
338
334
333
334
335
335
336
336
337
337
336
335
336
337
338
337
335
338
340
344
351
360
370
380
390
396
395
385
370
350
330
315
307
304
306
311
318
324
329
333
334
335
336
337
337
336
335
335
336
337
338
340
342
342
342
342
341
341
340
341
341
339
340
341
342
342
340
342
348
347
349
348
346
346
345
345
344
343
347
350
350
348
348
349
349
347
346
343
343
343
342
342
343
344
339
335
334
333
333
333
332
332
331
333
337
338
337
337
337
338
338
337
338
339
339
338
338
341
342
340
338
337
338
339
340
338
333
332
334
336
335
334
334
335
336
335
334
334
336
336
334
333
333
337
341
348
356
366
376
386
393
394
387
372
352
332
315
304
302
304
308
314
320
326
329
331
332
334
335
335
334
334
334
335
335
334
338
339
339
339
338
337
339
340
340
339
338
338
339
340
339
338
339
343
346
345
343
343
344
344
344
343
343
346
348
348
348
347
347
348
347
345
343
342
342
341
342
342
342
340
336
335
333
333
333
333
333
333
334
336
337
337
338
339
340
339
336
337
338
339
339
337
340
343
341
338
337
338
339
339
338
335
334
335
335
335
334
335
337
336
335
334
334
335
336
335
334
335
338
342
346
355
366
377
387
393
394
389
375
355
335
317
306
302
303
307
313
319
325
329
331
333
335
336
337
336
335
336
336
336
336
337
339
340
340
340
339
340
341
342
340
338
339
340
341
341
338
339
344
346
345
343
343
345
345
344
344
343
347
350
349
348
348
350
350
350
348
345
344
344
344
343
343
343
341
338
338
335
334
334
334
334
333
336
336
338
338
338
339
339
338
338
338
340
340
339
339
339
343
342
340
338
338
340
340
339
336
334
335
335
334
334
336
338
338
336
336
335
336
336
336
335
336
338
342
346
354
364
375
384
391
395
392
379
361
338
320
309
304
303
306
312
319
325
329
331
333
335
337
338
336
335
336
337
337
335
337
340
343
343
341
340
340
341
342
341
341
341
341
341
340
341
341
344
347
347
345
345
345
345
344
344
346
348
350
350
349
349
350
350
350
349
346
345
344
344
344
344
344
342
338
337
337
336
336
335
334
334
336
338
340
340
339
339
339
339
338
339
340
341
339
339
340
344
343
341
340
340
341
341
341
338
335
335
336
336
336
336
337
337
336
336
336
337
337
336
336
336
337
339
342
351
362
373
382
391
395
393
382
364
344
324
311
305
304
307
313
319
324
329
331
333
335
337
337
336
335
335
335
335
334
336
340
342
342
342
340
339
340
341
341
340
340
340
341
341
339
339
342
345
345
344
344
346
346
344
344
343
345
348
349
348
348
349
349
348
348
346
344
343
342
341
342
344
342
339
337
336
335
334
334
333
334
334
335
337
339
339
339
339
339
340
339
339
340
340
339
339
342
343
339
338
339
340
340
339
337
334
334
335
334
334
334
335
336
335
334
334
336
337
336
335
335
337
341
344
351
362
374
383
390
395
394
385
368
346
326
313
305
302
304
309
316
324
330
332
333
335
336
336
335
334
335
335
336
335
336
339
341
342
340
339
340
341
341
341
340
341
341
343
341
340
340
342
345
344
344
343
345
345
343
342
343
344
348
349
350
349
349
349
348
348
346
344
344
343
344
342
343
343
339
336
336
335
334
333
333
334
337
336
338
339
340
339
339
339
340
339
340
340
339
338
340
344
345
342
338
337
339
340
339
337
334
334
334
334
334
335
336
336
336
335
335
336
337
336
335
335
336
339
342
349
359
370
380
387
393
395
387
372
352
331
316
307
304
305
309
317
323
328
331
332
335
337
337
336
335
335
337
338
336
336
339
342
342
341
339
338
340
340
339
339
339
340
340
340
339
339
342
345
345
344
343
344
346
345
344
344
344
346
348
348
348
348
348
347
347
347
343
342
342
341
341
342
343
338
335
335
334
333
333
332
332
333
334
336
337
338
338
338
338
338
338
338
339
338
337
338
341
345
341
338
338
339
339
339
338
336
335
335
335
335
335
336
337
336
334
335
336
337
337
336
336
336
339
341
347
357
367
377
385
393
395
389
373
352
332
317
307
303
303
308
315
322
327
330
331
334
336
336
335
333
335
337
336
335
336
339
342
343
341
339
339
340
341
340
339
339
340
341
340
339
339
341
345
345
344
343
344
346
345
344
344
344
347
349
349
348
348
350
349
346
345
343
342
341
341
341
342
342
339
336
335
334
334
333
332
333
334
334
335
337
338
340
341
340
338
338
339
339
339
338
339
341
344
342
340
339
341
341
339
338
335
335
336
336
336
336
336
336
336
335
336
336
336
336
337
337
337
338
341
345
356
366
377
386
392
396
391
376
356
335
318
307
303
302
305
311
319
325
329
329
332
335
335
334
333
333
334
335
334
334
336
340
341
341
339
339
339
339
339
338
339
340
340
339
338
339
341
344
346
344
344
345
345
345
344
344
345
346
348
348
348
348
348
347
346
346
345
343
342
342
342
343
343
340
338
336
334
333
332
332
333
334
335
335
336
339
340
339
338
337
338
339
340
339
339
338
341
344
342
340
338
339
339
339
338
336
334
334
335
334
333
334
335
335
335
335
336
337
336
336
336
336
338
340
345
354
365
375
384
391
397
395
382
361
340
322
310
304
302
305
313
319
325
330
331
334
336
336
335
334
335
336
336
335
335
338
341
342
341
340
340
341
342
341
341
340
340
341
340
340
340
340
342
344
344
344
345
344
343
342
343
345
346
349
349
348
348
349
348
347
347
344
343
342
342
342
343
343
340
336
336
336
335
334
332
332
334
334
335
336
337
340
339
338
337
338
340
341
340
338
338
340
343
342
339
338
339
340
338
337
336
335
335
335
334
334
336
336
336
336
336
336
336
335
333
334
336
338
340
343
351
362
372
380
387
394
392
380
362
342
324
311
304
301
303
310
318
324
328
329
331
334
335
334
333
333
334
335
335
334
337
341
342
340
338
339
341
341
340
339
339
340
340
339
338
340
342
343
345
344
344
345
345
343
343
344
345
345
347
348
348
349
349
348
346
347
346
343
342
342
343
344
344
340
337
336
336
335
333
332
332
334
335
335
338
340
340
340
339
338
337
339
341
339
338
337
339
342
343
340
338
339
339
339
338
336
334
333
332
332
333
334
335
334
332
332
334
335
335
334
334
336
337
340
342
349
360
371
380
388
394
395
384
367
346
327
313
306
303
303
309
316
323
327
330
331
334
335
335
333
333
335
335
335
333
334
339
341
340
339
339
339
340
340
339
339
340
340
339
339
339
341
342
344
344
346
345
346
345
344
343
344
345
346
348
348
349
349
347
347
348
348
345
343
341
341
342
344
342
339
337
337
335
333
332
333
335
335
334
336
338
340
340
338
337
337
339
339
339
338
338
339
342
342
339
338
338
339
339
339
338
336
335
334
334
334
336
336
335
334
333
334
335
335
335
335
336
336
338
340
348
358
369
378
387
395
396
387
370
350
330
316
306
301
302
307
314
320
324
328
330
333
335
334
333
333
334
335
334
333
335
339
341
340
339
339
339
340
340
340
339
340
341
341
340
339
340
342
344
344
344
344
344
343
343
343
345
345
347
349
349
350
350
348
347
347
347
344
342
340
341
342
343
342
338
337
336
334
332
331
332
334
335
334
335
337
339
340
339
338
338
340
341
340
339
338
338
341
343
340
339
339
339
339
338
337
335
334
334
333
333
335
336
335
334
334
334
335
335
335
335
335
336
337
340
346
356
367
376
383
392
395
389
374
354
335
319
309
304
302
308
315
321
325
329
331
334
336
335
333
334
335
336
335
334
335
339
342
341
339
339
340
340
339
339
340
341
341
340
339
340
341
341
343
344
345
345
345
344
343
343
345
345
346
349
349
349
349
349
348
347
348
346
343
341
342
343
343
342
338
336
337
336
335
334
333
333
334
333
334
336
339
340
338
337
337
338
339
339
338
338
339
342
344
341
338
340
340
339
338
337
336
335
333
333
334
335
336
335
334
334
335
336
336
335
335
336
337
337
339
344
354
365
374
383
392
397
392
377
358
338
321
309
303
301
305
314
321
325
328
330
334
336
335
334
334
335
335
335
334
335
339
341
340
339
339
340
340
340
339
339
341
342
341
339
339
341
342
345
346
345
345
346
345
344
343
343
344
344
345
347
348
349
348
347
346
347
346
343
341
341
342
343
342
338
336
337
336
333
332
332
333
334
334
334
338
341
341
339
338
338
339
339
339
339
339
339
341
343
341
339
339
338
338
340
340
338
335
333
333
333
336
336
335
334
334
335
336
336
336
336
337
337
337
338
344
354
364
373
382
390
396
393
379
360
339
322
310
303
300
303
311
318
324
327
329
332
335
336
334
334
334
334
334
334
334
338
340
340
339
339
339
339
338
337
338
339
340
340
339
339
339
340
342
343
343
345
345
344
343
344
344
344
344
346
348
349
350
348
347
347
348
347
344
341
342
343
343
343
339
337
337
336
333
332
332
333
334
334
334
336
339
340
339
338
338
338
340
340
338
337
337
339
342
342
339
338
339
339
338
337
336
335
334
333
335
336
337
336
334
334
335
336
336
335
335
335
336
337
339
343
351
361
371
380
388
395
396
382
364
343
325
312
304
301
303
310
318
323
327
329
332
335
336
336
335
336
336
335
333
334
336
340
342
341
340
340
341
341
340
339
339
340
340
339
339
340
341
342
343
344
345
346
345
344
343
344
344
344
345
347
348
350
349
347
347
347
347
344
342
342
344
344
344
342
338
339
338
335
333
333
334
335
333
333
336
339
340
340
339
338
339
340
339
338
338
339
339
341
341
340
338
338
339
338
338
337
335
334
333
332
333
335
335
334
334
335
336
335
334
334
336
336
336
337
339
348
359
368
377
386
394
395
384
366
346
328
314
306
301
302
309
317
321
326
329
332
335
335
334
333
333
335
335
334
334
336
342
343
341
341
340
341
341
340
341
340
340
339
338
338
339
341
342
344
344
345
346
345
344
345
345
345
345
346
348
349
350
349
348
347
348
348
345
342
342
343
343
343
341
338
338
338
335
332
332
333
334
334
334
336
338
340
337
336
337
338
339
339
338
338
339
341
342
342
339
338
338
339
338
339
338
337
334
333
334
334
335
334
333
334
335
335
335
334
334
335
337
336
337
340
346
357
367
376
385
393
396
388
371
351
332
317
307
301
302
308
316
321
325
330
333
335
335
334
334
334
335
335
334
334
336
339
341
340
339
340
341
341
339
339
339
340
340
339
340
340
340
339
341
344
345
346
345
343
343
344
345
344
345
348
350
350
348
346
345
346
346
344
341
340
341
343
343
341
338
337
337
335
332
331
332
333
334
333
335
339
339
339
338
337
339
340
339
337
338
340
341
342
343
341
340
340
340
339
339
339
336
333
332
332
334
335
335
333
333
334
336
336
334
334
335
336
336
338
340
346
356
366
374
383
392
397
391
375
356
336
321
309
302
301
306
314
320
325
328
330
333
334
334
334
335
336
336
334
334
335
339
341
341
340
340
342
341
340
339
340
341
341
339
339
339
340
340
341
343
345
345
344
344
343
344
344
344
345
348
350
350
349
348
347
348
349
345
342
341
341
343
343
342
339
337
337
335
332
331
333
335
335
333
333
338
341
341
340
339
339
340
340
339
338
338
339
340
342
341
340
339
339
338
338
339
338
335
334
334
335
337
337
335
333
333
336
335
334
334
334
337
337
337
340
345
354
364
373
382
392
399
395
379
358
339
323
310
303
302
307
314
319
323
328
332
335
336
334
334
335
335
335
335
335
335
338
340
340
339
339
340
340
339
338
339
340
340
340
340
341
341
341
341
344
346
347
346
345
344
344
345
346
347
348
351
351
351
349
348
349
350
347
343
342
343
344
344
342
340
339
340
338
335
333
333
335
335
333
334
337
341
341
338
337
339
341
341
339
339
340
341
341
343
343
341
341
340
340
339
339
337
336
333
333
334
335
336
334
333
334
336
336
335
335
336
335
335
334
337
343
352
362
371
379
389
395
393
379
361
341
324
311
302
301
303
311
318
323
328
331
334
335
336
333
334
335
336
334
333
335
337
341
340
339
339
341
341
340
339
340
340
339
339
339
340
340
340
342
344
347
348
346
343
342
344
344
344
344
347
350
351
349
347
346
347
348
346
342
341
341
343
343
341
340
338
338
337
334
332
333
335
335
334
334
337
340
340
339
338
338
339
339
338
337
337
337
339
341
341
339
338
337
336
337
338
337
335
333
333
334
335
335
334
333
335
336
335
334
334
335
335
336
335
337
342
350
360
369
377
387
395
395
383
366
346
328
313
304
301
303
310
317
321
326
331
333
335
335
335
335
336
335
334
333
334
337
339
339
339
338
339
340
339
340
340
340
340
339
338
338
339
340
340
343
345
346
345
343
342
343
345
345
344
347
349
349
349
348
347
348
348
346
343
341
342
343
344
343
341
338
337
336
333
332
332
333
333
333
333
337
340
340
339
338
338
340
340
338
337
338
341
341
341
342
340
339
339
339
339
339
338
336
333
334
334
336
336
335
335
335
336
336
335
334
336
337
336
335
337
341
350
360
369
378
386
394
396
387
371
351
331
315
304
300
302
309
316
322
326
330
333
335
334
334
335
336
335
334
333
334
336
339
339
338
338
339
339
338
338
339
340
339
337
336
338
340
341
341
343
345
345
345
343
343
343
344
344
343
344
347
348
349
346
345
346
347
346
343
341
342
342
343
342
340
337
337
336
333
331
332
333
334
333
333
335
340
340
338
337
338
339
339
338
338
339
340
340
340
341
340
339
338
339
337
338
338
336
333
332
334
335
336
335
334
335
336
335
335
335
336
337
337
336
338
341
348
357
366
376
386
395
397
388
372
353
334
317
305
301
302
307
313
319
325
330
332
335
334
334
335
336
336
334
333
334
336
339
340
339
339
340
340
338
338
338
340
340
339
339
339
340
340
340
343
346
347
347
344
343
344
344
345
344
345
348
350
351
350
349
348
349
348
344
341
341
342
342
341
340
338
337
337
334
331
331
333
334
334
333
334
338
342
338
338
339
339
339
339
338
338
339
338
338
341
342
340
341
340
339
339
340
337
334
334
334
336
337
336
335
335
336
336
334
334
335
337
337
336
337
340
346
355
365
374
384
394
398
391
375
356
337
320
307
302
301
306
312
317
323
328
331
334
334
333
333
335
335
334
333
333
334
337
340
340
340
341
340
339
338
339
340
341
340
339
339
341
340
339
342
345
346
347
344
343
342
343
343
343
344
348
351
351
349
348
348
350
349
345
342
343
344
345
343
342
339
340
338
335
333
333
335
335
334
334
335
338
340
338
337
338
339
340
339
338
338
341
339
339
341
341
340
339
337
337
338
339
336
334
333
334
334
334
333
334
335
335
335
334
333
336
335
335
334
335
339
345
352
362
370
381
390
395
391
378
361
341
323
309
303
302
306
313
319
324
329
332
335
335
335
335
336
335
335
335
336
337
339
340
340
340
341
341
340
340
341
342
341
340
340
340
340
341
340
341
344
346
345
344
344
345
346
346
344
346
349
351
350
348
347
348
349
348
346
342
342
343
344
343
341
340
338
338
336
331
332
334
335
334
333
334
338
340
339
337
338
338
338
337
337
338
339
338
338
341
341
339
339
338
338
338
339
338
333
331
333
334
334
334
333
334
336
336
334
333
333
335
335
335
336
340
345
352
361
371
381
391
397
394
382
365
345
327
311
303
301
305
311
317
321
327
331
332
333
334
334
335
335
336
335
335
335
337
338
339
339
340
340
339
339
339
340
341
339
339
338
340
340
338
340
343
346
346
344
343
344
345
345
344
343
347
349
350
348
347
347
348
349
346
342
341
341
343
342
341
340
338
337
335
333
332
333
334
334
333
334
338
340
338
337
338
338
340
339
338
338
339
340
339
341
342
341
340
339
338
338
339
338
334
333
334
335
336
335
334
334
335
336
335
334
335
335
337
336
335
338
343
351
360
370
379
388
395
394
383
368
349
330
314
305
301
303
310
316
321
327
331
332
333
335
335
336
336
334
334
334
334
335
337
338
340
340
340
340
338
339
341
340
339
338
339
341
341
340
341
345
347
347
345
343
343
344
344
343
343
345
349
349
348
348
348
349
349
346
342
341
342
342
342
341
343
340
339
335
333
332
335
335
335
334
334
337
340
340
340
340
340
340
340
339
340
342
340
340
341
343
342
341
340
338
339
340
339
335
333
334
336
338
336
335
334
336
337
336
336
336
337
337
336
336
339
343
349
358
367
377
388
395
395
385
371
353
333
316
306
302
304
309
314
320
325
332
333
335
335
335
335
335
335
334
334
336
336
338
339
339
340
341
339
339
340
341
341
340
339
340
340
340
339
340
343
346
346
345
344
343
345
345
344
343
345
348
349
348
347
347
348
348
346
342
341
341
342
342
342
342
340
338
337
333
332
334
334
334
333
333
336
339
339
338
338
339
339
337
337
338
340
342
339
340
342
341
340
338
339
339
340
340
337
334
334
336
336
334
333
335
336
335
335
335
336
336
336
336
335
338
342
348
356
366
376
385
393
395
389
375
356
336
319
307
302
302
307
313
319
325
330
332
334
334
334
335
335
334
333
334
336
336
337
338
339
340
340
338
338
340
342
341
340
339
341
342
341
339
339
342
346
345
344
343
343
343
344
344
343
345
349
351
349
348
348
349
349
348
345
343
343
343
343
343
343
341
339
338
336
334
334
334
334
334
334
336
340
341
340
339
340
340
339
338
339
340
341
340
340
343
343
341
339
339
340
341
341
337
333
334
336
336
335
333
334
336
337
335
335
336
337
337
336
337
339
343
348
355
365
375
385
394
398
392
378
360
340
321
309
303
303
306
313
319
325
330
332
333
334
336
337
337
335
334
335
336
336
338
340
342
342
342
341
340
339
341
342
340
339
340
342
342
342
341
343
346
347
346
345
345
346
345
344
344
346
350
351
350
348
348
349
350
349
345
342
342
342
343
343
343
341
338
337
335
333
333
333
332
332
334
335
338
338
337
338
340
340
340
338
339
339
339
339
340
343
343
341
340
340
340
341
341
337
333
334
336
336
334
334
335
336
336
335
335
336
336
336
336
337
338
342
346
353
363
374
383
392
396
394
381
365
344
324
310
303
302
305
312
318
324
329
332
333
335
335
335
336
335
334
335
335
336
337
339
340
342
341
340
339
340
341
341
340
339
339
340
340
340
339
341
345
346
344
344
345
344
343
342
342
344
348
350
350
348
349
348
348
346
344
342
344
343
342
341
341
341
339
337
335
333
333
334
333
333
334
335
338
338
338
337
338
339
339
338
338
338
339
339
339
341
342
340
338
337
338
340
340
337
333
333
334
335
334
334
335
336
336
335
335
335
336
336
335
335
336
340
344
351
360
371
381
390
396
394
384
367
346
327
312
304
302
305
310
316
322
327
331
333
335
336
335
335
334
333
334
336
336
336
338
341
341
341
340
338
339
340
340
338
338
338
340
340
340
339
341
345
346
345
344
344
346
346
344
343
344
348
350
350
349
348
348
349
348
347
345
344
343
343
343
342
343
339
337
336
334
334
334
333
333
334
335
338
339
339
339
340
340
339
338
339
340
339
338
338
341
344
341
337
337
339
341
341
338
335
334
335
335
335
334
334
335
336
336
335
335
335
335
335
334
335
339
343
349
358
369
379
388
394
394
386
371
351
332
316
306
303
305
309
315
320
327
331
332
333
334
335
335
335
334
334
335
335
336
338
340
342
341
339
340
339
340
340
339
339
340
341
341
339
338
340
344
345
344
343
344
345
345
343
342
343
347
348
348
347
347
347
348
347
346
344
343
342
341
340
341
342
338
335
333
331
332
333
332
333
335
335
337
339
338
338
338
338
337
337
337
338
339
338
337
341
343
341
339
338
338
340
340
339
335
334
336
336
335
334
334
336
335
334
334
335
336
336
335
335
335
338
341
347
355
366
377
386
392
394
387
373
352
331
314
305
303
303
308
314
320
326
329
329
331
333
335
335
334
333
334
336
336
336
338
340
341
341
340
339
340
340
341
341
340
339
340
341
340
339
339
342
345
345
344
344
345
345
344
344
344
346
348
348
347
348
349
349
348
346
343
342
342
342
341
342
343
341
338
336
334
333
333
332
333
333
334
336
338
338
338
338
339
338
338
339
340
340
339
338
341
345
344
341
338
338
340
341
339
335
334
335
336
335
335
335
336
336
335
334
335
337
337
336
334
335
339
343
347
355
365
376
386
393
395
390
377
358
337
319
308
303
302
305
312
320
326
330
331
333
334
335
334
333
333
334
335
335
335
336
338
340
340
339
337
338
340
340
339
338
339
341
341
339
338
339
343
345
344
343
343
344
344
344
343
342
343
347
347
346
346
348
348
347
346
344
343
342
342
342
343
342
339
337
336
335
334
334
335
335
335
335
336
337
339
339
340
340
340
340
339
339
339
338
338
339
343
342
340
338
338
339
339
338
334
333
334
336
336
335
334
335
336
336
336
336
336
336
335
334
335
338
341
344
352
364
375
385
392
395
393
381
362
339
320
309
304
302
305
311
317
323
329
331
332
333
335
336
334
333
335
336
336
335
336
339
341
341
340
339
339
340
340
339
340
341
341
341
339
339
339
342
345
345
344
344
344
345
344
344
344
345
348
349
349
348
349
349
348
347
346
344
343
342
341
342
344
342
338
337
335
334
334
333
331
332
333
335
337
338
339
340
339
338
338
339
340
340
339
338
339
343
344
340
337
337
339
340
340
338
335
334
336
336
335
335
336
336
336
336
336
337
336
335
335
336
337
339
344
351
362
372
382
391
396
393
382
365
345
326
313
307
305
306
312
319
324
329
332
333
335
335
335
335
335
334
335
337
335
336
338
341
341
339
339
340
340
339
338
338
339
340
340
338
338
340
344
345
345
344
344
345
344
343
342
344
345
346
347
347
347
347
348
346
345
344
343
342
341
342
343
342
340
337
335
334
333
333
333
333
334
334
334
337
340
340
340
339
337
337
339
340
339
338
338
338
342
343
339
339
338
339
339
338
335
333
334
335
335
335
336
337
337
336
336
335
336
336
336
336
337
338
341
343
349
359
371
381
388
394
394
384
367
346
327
314
307
304
304
309
316
323
327
330
331
334
335
335
334
334
334
335
335
334
335
339
341
341
340
340
341
342
342
340
340
340
341
341
340
339
339
342
345
346
345
344
345
345
346
344
344
345
348
349
349
350
351
350
348
348
347
345
344
343
343
344
344
343
339
337
337
335
334
333
333
334
336
336
337
339
340
340
340
339
338
338
341
342
339
338
339
343
345
343
341
341
341
341
340
339
337
337
337
336
335
335
336
336
335
334
334
335
336
335
334
334
335
339
342
348
357
368
378
386
394
396
388
371
349
329
315
307
303
303
308
315
322
327
330
332
336
336
336
335
334
335
336
336
335
335
339
343
344
342
340
340
341
342
341
340
340
340
342
341
341
340
343
345
345
344
344
346
345
344
343
344
344
348
349
348
348
348
349
348
347
347
344
342
343
342
343
343
342
338
337
337
336
335
334
333
334
336
335
335
338
340
340
339
338
339
339
339
339
338
338
339
341
344
342
339
337
338
339
339
338
336
333
333
333
334
334
335
334
334
334
335
336
335
334
334
335
335
337
340
346
355
366
375
384
392
396
390
375
354
334
319
309
304
301
305
314
320
325
328
330
333
335
335
334
333
334
337
336
335
334
337
340
340
339
339
339
340
340
338
338
339
340
340
339
339
340
341
344
345
345
345
344
344
344
344
344
345
346
347
347
349
350
348
348
346
347
345
343
341
341
342
343
343
339
336
336
335
334
332
332
334
335
335
335
337
339
340
339
338
338
338
339
338
337
336
338
341
344
341
338
337
338
340
338
337
335
334
333
333
333
333
334
335
335
335
336
337
337
336
335
336
336
337
339
344
353
365
373
382
389
395
391
378
359
338
320
309
303
300
305
312
319
324
327
329
332
335
336
335
333
333
334
336
334
334
337
341
341
340
338
338
339
340
340
339
340
341
341
340
339
340
341
344
345
345
344
344
343
343
343
344
345
345
347
347
348
349
350
349
348
348
346
343
341
341
342
343
343
340
337
336
335
334
333
332
333
334
334
333
336
338
339
338
337
336
337
339
340
338
337
337
339
343
342
339
338
338
338
338
339
337
334
333
332
333
334
335
335
334
334
335
336
335
334
333
334
336
338
339
342
352
362
372
382
390
396
394
381
362
341
324
311
305
302
305
311
320
326
329
330
333
337
337
336
334
335
337
337
336
334
337
341
342
340
338
338
340
340
339
339
339
339
339
339
339
340
340
342
343
344
344
344
344
343
344
345
345
345
347
349
350
350
349
347
347
347
346
343
341
340
341
343
343
341
337
337
335
333
333
332
333
334
335
333
336
339
340
339
338
338
339
339
339
338
338
338
339
342
341
338
338
338
339
339
339
337
334
333
333
334
335
336
336
335
334
336
335
335
335
334
335
336
337
338
342
350
361
372
380
389
395
395
384
366
345
327
314
305
301
303
310
318
323
326
329
332
335
335
334
334
334
335
335
334
334
336
340
341
341
339
339
340
341
339
338
339
340
340
339
340
339
340
342
343
344
345
345
346
345
344
345
346
346
347
349
349
350
349
348
346
347
347
345
342
342
342
344
345
342
339
338
338
336
334
333
333
335
334
334
337
340
342
341
339
339
341
341
341
339
339
339
340
343
343
341
339
340
340
339
339
337
336
336
334
334
335
336
336
335
335
335
336
336
336
336
336
337
336
338
341
349
359
369
378
387
394
396
386
369
348
329
315
306
302
304
310
317
322
327
329
332
335
336
336
335
335
336
335
335
335
336
343
344
341
341
340
341
341
341
340
341
342
341
340
340
340
342
343
345
346
347
346
346
346
346
346
347
347
348
349
350
351
350
348
347
348
348
346
344
344
343
344
344
342
338
337
337
335
333
333
333
334
333
333
335
338
340
341
339
338
339
340
340
338
339
338
340
341
344
340
339
340
340
339
338
337
337
334
333
333
335
336
336
335
334
335
336
336
335
335
335
335
336
337
339
348
359
368
377
385
393
397
389
372
352
334
318
307
302
302
308
315
321
325
329
332
336
337
336
335
335
335
335
335
335
336
340
342
341
340
341
342
342
342
340
341
341
342
341
341
340
341
342
343
345
345
347
346
345
344
344
345
344
346
349
350
349
348
347
347
347
347
344
341
341
342
344
343
342
338
338
338
336
333
332
333
335
334
333
334
338
340
340
339
338
339
340
340
339
337
337
340
341
343
340
339
340
340
340
340
340
338
336
335
334
334
336
336
336
334
335
336
336
335
336
336
337
337
339
341
347
357
367
375
383
392
399
394
377
357
337
321
310
303
301
307
314
321
325
329
332
335
336
336
335
335
335
335
334
334
335
340
342
340
339
339
341
341
340
339
340
341
342
341
341
341
342
342
344
345
346
346
346
345
344
345
346
345
346
349
350
351
350
348
348
349
349
346
343
342
342
344
344
343
339
337
337
334
332
332
333
335
335
334
334
338
340
340
338
337
338
340
340
338
337
338
340
341
344
342
340
339
340
340
339
340
339
336
335
335
336
338
337
336
335
336
337
337
336
336
336
336
336
336
339
345
354
364
373
383
391
397
393
378
359
339
322
310
303
300
305
313
319
324
326
329
332
335
335
334
334
334
334
333
334
335
338
340
339
339
339
340
341
339
338
340
342
342
341
339
340
342
343
344
346
348
348
346
344
344
345
346
347
346
348
350
352
350
349
347
348
349
347
343
341
343
344
344
343
340
339
339
338
335
334
335
336
335
334
333
339
341
340
339
339
339
341
341
339
337
338
339
340
344
344
340
339
340
340
339
340
338
335
332
332
334
335
336
336
335
335
336
336
335
334
334
337
335
336
338
342
351
362
371
379
388
396
394
381
362
344
327
313
304
301
304
311
318
322
326
329
333
335
334
334
334
335
335
335
333
335
339
340
340
339
339
341
340
339
339
340
341
340
339
339
339
341
341
342
346
345
346
345
343
343
344
345
345
344
346
348
349
348
347
347
349
350
347
343
341
342
343
344
343
340
338
338
337
333
332
333
334
335
334
333
336
339
341
339
337
338
339
340
339
337
338
339
340
342
341
338
339
338
338
337
338
338
335
332
332
333
335
336
336
334
334
335
335
335
334
335
336
336
335
337
341
349
360
367
376
385
394
394
382
365
345
328
313
304
299
302
310
316
321
326
330
332
334
334
333
334
335
335
334
334
334
336
340
340
339
339
339
340
339
338
338
340
341
339
338
340
341
341
341
342
345
346
346
344
344
344
345
345
343
344
347
349
349
347
347
347
349
348
344
341
342
344
344
343
340
338
338
337
334
332
333
335
335
334
334
336
340
340
339
337
338
339
339
338
338
338
339
340
340
341
340
339
339
338
338
338
339
337
335
333
334
334
335
334
334
334
335
335
334
333
335
337
338
336
338
342
349
358
367
378
386
395
398
388
371
351
333
318
307
302
303
310
317
322
326
330
333
335
335
335
336
337
336
335
333
335
337
340
341
341
340
341
342
340
340
341
342
342
340
341
341
342
342
342
344
345
345
345
344
344
345
346
346
344
346
349
350
350
348
348
349
349
349
345
343
343
344
344
343
341
340
339
339
336
333
333
336
336
335
335
338
341
342
340
339
340
340
341
340
339
339
340
340
342
343
341
340
340
339
338
339
340
337
333
333
334
335
336
335
333
334
335
335
334
333
334
335
336
335
336
339
346
356
365
374
384
392
396
388
373
354
335
318
306
302
302
308
314
319
323
329
332
334
334
334
334
335
335
333
332
333
335
338
339
339
339
339
339
338
337
338
340
341
340
338
339
340
340
339
342
344
346
345
344
344
344
345
345
344
345
348
350
350
348
347
347
348
348
344
341
342
343
343
342
341
338
337
336
335
332
333
334
335
334
333
335
339
341
339
338
339
340
340
338
338
339
341
341
340
341
341
339
338
338
338
339
339
336
334
334
335
337
336
336
335
335
336
337
336
335
336
337
337
335
336
340
346
356
365
374
383
392
396
391
377
359
339
321
308
302
301
306
313
318
323
327
330
333
333
334
334
335
335
334
334
334
334
337
338
339
339
340
340
338
338
339
339
340
339
339
340
341
340
339
341
345
347
347
345
344
344
345
345
344
344
347
350
350
349
347
347
349
350
346
343
342
342
342
341
342
339
338
337
334
332
331
332
333
332
333
334
338
340
340
337
338
339
338
337
336
336
338
338
338
341
341
340
339
338
338
338
339
338
335
333
333
335
336
334
334
334
335
336
335
335
336
337
337
337
338
342
348
355
364
373
382
393
398
396
381
363
344
326
312
304
302
306
313
318
323
328
332
334
335
335
335
336
336
335
336
336
338
340
341
341
341
342
342
340
340
340
341
341
341
340
340
340
340
339
341
344
346
345
345
345
345
346
346
346
344
346
349
351
349
348
348
349
349
346
343
342
342
343
341
340
340
338
337
334
331
331
333
334
333
332
334
336
338
338
338
337
339
340
340
338
338
338
338
339
341
341
339
338
338
337
338
338
336
333
332
333
335
336
334
334
334
335
335
334
334
334
335
336
336
335
339
343
351
360
369
379
388
396
394
382
365
346
327
311
304
302
305
312
317
321
326
331
333
334
333
334
335
337
334
333
334
335
336
339
340
340
340
339
339
338
338
340
340
339
339
340
341
340
339
340
343
345
345
343
343
344
345
345
343
343
345
350
350
348
347
347
348
348
345
342
341
341
343
342
341
340
339
339
337
334
333
334
334
334
334
334
337
340
339
339
340
339
339
338
337
338
339
339
338
340
342
339
338
337
338
339
340
339
335
334
333
335
336
335
335
335
336
336
335
334
335
336
336
335
334
337
342
350
357
367
378
387
395
394
384
368
349
329
314
304
301
304
309
316
320
325
330
331
332
332
333
334
334
334
333
334
335
336
338
339
339
341
340
339
339
339
341
341
340
339
339
340
340
339
340
343
346
346
345
344
344
344
344
344
343
346
350
351
350
348
347
348
348
347
343
341
342
343
343
342
341
339
337
336
333
332
334
335
335
333
333
337
340
339
338
337
337
339
338
337
338
339
339
337
339
342
341
340
337
337
338
340
338
334
333
333
334
335
335
334
335
335
336
335
335
336
337
337
335
335
337
341
348
358
368
377
387
395
397
389
373
354
334
317
306
302
303
309
315
319
325
331
333
334
334
335
336
336
335
334
334
335
336
337
339
340
340
340
339
339
339
340
341
341
339
339
340
341
341
340
343
345
345
345
344
345
345
345
344
343
345
350
350
349
347
348
349
349
348
344
343
344
345
343
342
343
340
338
336
334
333
335
335
334
334
335
337
341
341
340
339
340
341
340
339
339
340
340
340
341
343
344
341
340
339
339
339
339
335
332
332
333
335
334
333
333
335
336
335
333
334
336
336
334
333
335
340
345
354
363
374
384
393
395
389
375
358
338
320
306
302
303
307
313
318
323
329
333
334
334
335
336
336
334
333
333
334
336
338
339
339
340
340
339
339
340
340
340
339
339
339
339
340
340
340
343
346
346
344
343
343
345
345
344
344
345
349
350
349
347
348
348
348
346
343
341
342
343
342
341
341
339
337
336
334
333
334
335
334
334
334
336
340
339
338
337
338
339
338
336
337
338
339
338
338
341
341
340
339
337
338
340
340
336
332
332
333
334
334
332
332
333
335
335
334
335
336
335
334
334
336
340
344
352
361
371
382
391
395
391
378
361
340
321
308
302
302
305
311
316
322
328
331
333
334
334
334
335
335
334
334
335
335
337
339
340
341
340
339
339
340
341
341
339
338
338
339
341
340
339
341
344
345
344
343
343
344
343
343
343
345
348
350
349
348
348
350
349
347
343
341
342
343
343
342
342
340
338
336
334
332
332
333
333
332
333
335
339
339
338
338
339
339
338
337
338
339
339
338
338
342
342
340
338
338
338
338
339
337
333
333
335
335
335
334
334
335
336
336
333
335
335
335
335
335
336
338
343
351
361
372
382
391
395
392
381
364
344
325
310
304
302
306
311
316
321
328
331
332
332
333
334
334
334
333
334
335
334
335
339
342
343
343
341
339
339
341
341
340
340
340
341
341
340
339
341
345
346
345
344
346
346
346
344
344
345
348
350
349
347
347
348
348
348
345
342
342
344
344
343
343
342
340
338
335
333
333
334
333
334
335
336
338
339
339
339
340
340
340
339
339
340
340
339
340
342
343
342
339
338
338
339
340
337
334
333
336
336
335
333
333
335
336
336
335
336
338
338
336
335
336
341
343
351
360
369
379
388
394
393
383
369
349
330
314
305
303
305
310
316
322
329
332
333
335
336
335
335
335
335
335
336
336
336
338
339
340
340
340
338
338
339
342
340
339
340
341
342
342
340
341
345
347
348
345
344
346
347
346
345
345
349
351
350
348
348
349
349
348
346
343
343
344
343
341
342
342
340
338
337
336
336
335
334
333
333
336
338
340
340
340
339
339
339
338
339
340
340
338
338
341
345
341
339
339
340
341
341
339
335
334
334
336
336
335
335
336
337
336
335
336
338
338
338
336
336
340
344
350
358
368
378
388
395
396
387
372
353
334
316
306
303
304
309
315
320
327
332
333
334
335
335
335
334
334
336
337
337
337
340
340
342
342
341
340
340
340
341
340
340
339
341
342
342
340
342
346
348
347
345
344
346
346
346
345
344
348
351
351
350
349
349
350
350
348
345
343
344
344
343
342
343
340
337
336
334
333
334
333
333
334
334
336
338
339
339
339
339
338
338
339
339
339
338
337
340
343
342
339
338
339
340
341
339
337
335
334
335
335
335
335
336
337
336
335
336
337
337
336
335
336
338
342
347
355
365
377
386
395
396
389
374
355
335
317
307
303
304
308
314
320
326
331
332
333
334
335
336
335
334
334
335
336
336
338
339
340
340
339
338
338
339
340
339
338
339
340
340
339
338
339
343
345
345
344
344
346
345
344
342
341
344
347
348
347
347
348
348
347
346
344
343
342
342
342
344
345
343
338
335
334
335
335
335
334
334
335
338
340
341
340
341
342
341
339
340
341
341
339
338
340
344
343
340
339
339
340
341
340
337
334
335
336
336
336
335
335
335
335
334
335
336
337
337
336
336
338
341
345
352
364
375
385
393
396
392
379
361
339
322
310
303
304
308
314
320
325
330
332
333
335
336
337
335
333
333
336
337
336
338
340
342
342
341
339
339
341
342
341
340
339
342
340
339
339
339
342
345
345
343
343
345
345
344
343
343
346
349
350
349
347
348
349
348
347
344
343
342
342
342
342
343
341
337
336
334
332
333
333
332
332
333
336
338
339
339
340
340
339
337
337
339
340
340
338
340
344
344
340
337
337
339
339
339
336
335
335
334
334
333
334
335
335
335
334
334
335
336
336
336
336
338
341
344
352
362
373
383
391
395
393
381
364
342
323
311
305
303
306
311
318
324
330
333
333
335
336
336
336
335
335
336
337
336
338
341
343
343
341
340
340
342
343
342
340
341
341
342
341
341
340
343
346
347
347
346
347
346
344
343
345
348
351
350
350
350
351
351
350
349
347
345
345
344
344
344
345
343
340
338
338
336
334
333
333
334
336
337
339
340
340
340
340
339
339
339
340
341
340
339
340
343
343
340
337
338
341
340
339
337
334
334
335
335
335
335
336
336
335
335
335
336
336
336
335
335
337
340
344
351
361
372
382
390
394
395
385
368
346
327
313
306
304
305
310
318
324
330
331
332
334
336
336
336
334
335
336
336
335
336
339
341
341
340
339
339
340
341
341
340
339
340
339
339
339
341
343
345
345
345
344
344
344
343
342
343
344
348
349
348
348
349
350
348
347
346
344
342
342
342
342
344
342
338
336
335
335
335
334
334
334
336
336
337
338
338
339
340
337
337
337
338
340
339
338
339
343
344
341
338
338
341
341
340
338
334
334
335
334
334
334
335
335
334
334
334
336
337
337
335
335
336
338
341
348
359
370
379
387
393
394
385
369
349
329
315
307
304
304
309
316
322
327
331
332
334
336
337
336
335
335
336
337
337
337
338
341
341
340
340
340
341
341
341
340
343
342
341
340
339
341
343
345
345
345
346
345
346
345
344
345
345
348
348
348
348
349
349
347
347
346
344
343
342
342
343
345
343
339
337
336
335
335
334
333
333
334
335
336
338
339
339
339
339
338
339
341
340
340
340
340
342
344
341
338
338
340
342
340
337
334
334
335
335
335
336
336
336
336
336
337
338
338
336
335
337
338
340
342
348
358
370
380
387
394
396
389
375
354
334
318
309
304
304
308
316
323
328
331
331
335
338
336
334
333
335
337
337
335
335
338
342
342
340
339
339
340
341
340
339
340
340
341
340
339
339
341
345
346
345
344
345
345
344
343
345
346
348
350
350
350
350
350
349
348
348
346
344
343
343
343
344
343
338
337
337
336
334
333
333
334
335
336
337
339
340
341
341
340
338
338
340
341
340
339
340
344
344
341
338
337
339
340
339
338
336
335
335
335
335
335
336
336
336
336
335
336
336
335
334
335
336
338
340
345
355
367
376
385
392
397
392
378
358
338
321
309
303
301
305
313
320
326
329
331
333
335
335
335
334
334
335
336
336
335
337
341
342
341
339
339
340
340
341
340
340
341
341
340
340
341
342
345
346
345
345
345
346
345
343
342
344
346
348
348
348
348
349
348
347
348
346
344
343
341
341
343
344
340
337
336
336
334
333
332
332
334
333
334
337
339
340
339
337
337
338
340
341
339
337
338
340
343
342
339
338
338
340
340
339
336
335
335
335
335
335
336
336
335
335
336
337
337
336
335
336
337
337
340
345
353
364
375
382
391
398
395
382
362
341
322
310
305
303
306
314
323
328
330
331
333
335
337
335
335
335
336
336
335
335
338
342
343
342
341
342
342
341
341
340
340
341
342
341
340
340
341
344
345
345
345
345
346
345
344
344
345
346
348
349
350
349
348
348
348
348
345
342
341
342
342
343
343
340
337
337
336
335
334
333
333
334
336
336
338
339
340
341
340
338
337
340
341
339
338
339
340
344
342
340
339
340
341
339
338
336
335
334
334
335
336
337
336
335
334
335
336
337
336
336
336
337
337
339
343
351
363
374
382
390
397
395
383
364
343
326
313
306
303
305
312
319
325
329
331
333
336
337
336
335
336
337
337
336
335
337
341
342
341
339
339
341
341
342
341
341
342
342
341
339
340
342
343
345
346
346
347
345
345
344
344
345
346
348
349
349
349
349
348
347
347
346
343
341
341
343
344
343
341
337
337
337
335
332
332
333
334
335
334
336
340
341
341
340
339
339
342
342
341
340
340
342
344
344
341
339
340
341
341
340
339
337
336
335
336
336
337
337
336
336
336
337
338
337
336
337
337
337
340
344
352
361
372
380
389
396
397
386
367
347
328
314
306
302
303
309
316
323
326
329
333
336
337
335
335
335
336
338
337
336
337
341
342
341
339
339
340
341
342
339
340
340
340
339
338
339
343
343
345
344
344
345
345
345
343
344
344
345
347
349
349
350
349
349
348
348
347
345
343
342
343
344
345
343
338
338
338
336
333
333
333
336
336
335
337
340
341
342
340
339
340
341
341
341
340
339
342
344
344
340
339
340
341
340
339
338
337
337
336
335
335
337
337
336
336
336
336
336
336
336
336
337
337
339
341
349
360
370
379
388
395
396
387
371
350
330
316
307
301
301
308
316
321
326
329
331
334
336
335
334
334
335
336
336
335
335
340
342
341
341
339
341
342
341
340
340
341
342
340
339
340
341
343
344
345
345
345
345
344
344
344
345
346
347
349
351
351
350
349
347
348
348
346
343
342
343
344
344
342
339
338
338
336
333
333
334
335
336
335
335
337
339
340
340
339
339
340
341
339
338
338
339
342
343
340
339
339
340
340
339
339
337
336
333
334
336
336
337
336
336
336
336
337
336
335
335
338
338
338
341
347
357
369
378
386
395
398
391
375
355
335
320
309
304
304
308
317
322
326
329
331
335
337
336
335
335
336
337
336
335
336
340
342
342
339
339
341
341
340
338
338
339
340
339
338
339
341
342
344
345
346
346
345
345
344
343
346
345
345
347
349
349
350
349
347
348
349
346
343
341
343
344
344
342
339
338
338
336
334
333
333
334
334
334
336
339
342
342
341
340
340
340
339
340
338
339
340
342
343
341
340
339
341
340
339
338
336
335
334
334
335
336
336
335
334
335
336
336
336
335
336
337
337
337
339
345
354
365
375
383
391
397
392
377
357
337
321
309
302
301
305
313
320
324
328
330
334
336
336
335
335
335
336
336
336
336
339
342
341
339
339
340
341
340
340
341
342
342
340
339
340
340
342
342
342
345
346
345
345
344
345
346
345
346
349
351
351
351
350
347
347
348
346
343
342
342
343
344
343
339
338
338
336
334
332
333
334
335
334
336
339
341
341
340
338
338
340
340
339
339
338
341
342
344
341
340
340
340
339
340
339
338
336
334
335
336
337
338
335
335
335
337
338
337
336
336
338
337
337
339
345
354
365
374
383
391
397
394
381
362
342
324
311
303
300
305
312
319
324
328
331
334
336
336
334
335
336
336
336
336
336
339
343
341
339
340
342
343
342
340
341
341
342
341
340
340
342
342
343
344
346
346
346
344
343
344
345
346
346
348
349
350
349
348
348
348
349
348
344
342
342
343
344
342
340
337
337
337
333
332
333
335
336
335
334
338
340
341
340
339
339
340
340
339
339
339
340
341
343
341
340
339
339
338
338
338
338
336
333
333
333
335
336
335
335
334
335
337
335
335
335
336
336
336
339
343
352
363
372
381
390
398
397
385
366
346
328
314
305
301
304
312
319
323
327
331
334
336
335
334
335
338
338
336
335
336
339
342
342
340
340
341
341
341
340
340
341
343
342
340
340
341
341
341
344
345
345
345
345
344
344
345
344
344
346
348
349
350
349
348
348
349
348
343
341
342
344
345
343
341
338
337
338
335
332
333
335
335
333
333
336
339
341
339
337
338
340
340
339
339
339
340
340
342
342
340
341
340
339
338
339
339
337
335
334
335
336
337
336
335
336
336
337
336
336
336
336
337
337
338
342
350
361
370
379
388
396
397
386
368
348
330
316
306
302
303
310
316
322
327
331
334
336
336
335
334
335
336
336
335
336
338
342
342
340
340
341
341
340
339
340
342
342
341
339
340
341
342
341
343
345
346
346
346
344
345
345
346
345
346
349
351
351
350
349
348
349
349
345
343
343
344
344
344
343
340
339
339
336
334
334
336
336
335
334
336
340
342
340
339
338
340
340
339
339
339
339
340
342
343
340
339
339
337
338
338
338
336
336
334
334
335
335
335
334
334
335
336
335
335
335
335
337
336
337
340
348
358
367
376
386
394
397
389
373
353
333
318
307
302
303
309
316
321
326
330
333
334
334
333
334
336
337
336
336
336
338
341
341
341
341
341
342
341
340
341
342
342
341
340
341
342
342
341
344
345
346
347
345
345
344
345
346
345
347
349
350
349
348
348
348
349
349
345
342
342
343
344
343
341
340
339
339
335
332
332
333
334
333
332
334
338
340
339
338
338
339
339
338
338
339
339
339
340
342
342
340
340
339
338
338
340
337
335
334
335
335
336
335
335
336
337
335
334
333
335
336
337
335
337
340
347
355
365
373
383
392
397
390
374
354
336
320
308
302
302
308
316
320
323
329
332
334
334
334
334
335
336
336
334
334
335
338
340
340
340
341
341
340
339
340
342
341
339
338
340
342
342
341
343
345
347
346
344
343
345
346
347
345
345
348
351
351
349
348
348
350
349
345
342
343
344
345
344
343
339
338
337
334
332
332
334
335
335
335
335
338
340
339
337
338
339
339
338
337
338
340
340
340
343
342
341
339
338
338
339
339
335
333
332
333
335
335
333
333
333
334
335
335
334
334
335
336
336
335
338
344
354
364
373
382
391
395
391
377
358
340
322
309
301
301
306
313
318
323
328
330
332
334
334
334
335
336
335
335
335
335
338
340
340
340
340
340
338
339
339
340
340
339
339
338
339
340
340
341
344
346
345
343
342
342
344
344
343
344
346
349
350
349
348
347
348
348
345
341
341
342
343
344
343
340
339
339
335
333
332
333
335
334
333
335
339
341
339
338
338
339
339
339
338
338
340
340
340
342
342
341
339
338
338
338
339
338
334
333
334
335
335
335
335
335
336
336
335
335
334
335
336
335
336
338
343
351
361
371
381
391
396
393
380
362
343
326
312
303
300
304
310
316
321
327
331
333
334
334
334
335
335
335
334
334
336
338
339
339
339
340
340
340
339
339
340
341
340
339
339
341
342
341
341
344
346
345
343
343
344
344
344
343
343
347
349
349
348
346
346
346
346
345
341
340
342
342
343
342
340
339
338
336
333
332
333
334
333
333
334
337
339
339
338
338
339
339
338
337
337
338
339
339
341
341
339
339
338
338
339
338
337
334
333
333
335
336
334
333
334
335
335
335
335
336
336
337
336
336
340
344
352
361
369
378
387
395
394
383
366
346
328
312
303
299
302
309
316
322
327
332
333
334
335
335
337
336
335
334
334
336
338
339
340
340
340
341
340
340
341
343
342
340
339
339
340
341
340
340
343
346
345
343
342
343
343
344
344
344
346
348
349
348
347
347
348
348
346
343
341
342
342
342
342
341
339
338
336
333
333
333
334
333
333
334
337
340
339
338
338
339
340
339
338
338
339
340
340
341
342
341
341
339
339
340
340
340
336
334
334
335
336
335
335
334
336
336
335
334
335
336
336
334
334
337
342
349
357
368
378
389
397
397
387
372
352
332
315
305
301
304
309
314
319
326
331
333
335
335
335
335
336
335
334
334
335
337
339
340
340
340
340
339
339
339
340
340
339
339
339
339
340
340
340
343
345
345
344
342
343
343
343
342
342
344
349
350
348
347
347
348
350
347
343
341
343
343
342
341
340
338
337
336
332
331
332
333
333
333
334
338
339
339
337
338
339
340
339
338
339
339
340
339
341
343
342
341
339
339
340
340
339
335
333
333
335
336
336
335
335
336
336
336
336
337
338
337
336
335
338
342
348
356
367
377
387
395
396
389
373
354
335
317
306
302
302
308
315
320
325
331
332
334
335
335
336
337
335
335
334
335
336
339
340
341
341
341
339
339
339
341
341
340
338
339
340
341
340
339
343
346
346
343
343
345
346
346
344
343
345
348
350
348
347
347
347
348
347
343
342
342
343
343
342
343
340
338
336
333
332
333
334
334
333
334
337
340
340
339
339
340
340
340
339
338
340
340
340
341
344
343
341
338
339
339
340
340
336
334
334
336
337
335
334
335
336
337
336
335
335
336
337
336
335
335
340
345
354
363
373
384
393
396
390
377
359
339
321
308
303
303
307
313
317
323
329
331
332
334
335
335
334
332
332
333
334
336
337
338
339
339
339
339
338
339
341
340
338
337
338
340
341
340
339
341
345
345
344
342
343
344
345
344
343
344
348
350
350
348
347
348
348
347
344
343
343
343
342
341
341
340
339
338
335
333
334
334
333
332
333
335
339
339
339
339
340
340
338
338
338
339
340
339
339
342
343
340
338
337
338
340
341
338
334
333
334
334
335
334
335
336
337
336
335
335
337
337
336
334
336
341
346
352
362
372
383
392
396
393
380
363
343
324
311
304
303
305
311
318
323
328
331
333
334
334
335
335
334
333
334
336
336
337
337
338
340
340
339
338
339
341
340
339
338
339
339
340
340
339
341
344
346
345
344
344
345
345
343
342
343
348
350
349
347
346
348
349
347
344
342
342
343
342
342
342
341
338
336
335
334
334
334
333
333
335
336
341
340
339
339
339
339
338
337
337
339
340
338
337
340
342
339
337
337
338
340
340
337
336
334
335
335
335
334
335
336
336
335
334
334
335
336
335
335
335
339
344
351
360
370
380
389
395
394
383
367
347
327
312
303
302
305
309
315
321
327
331
332
333
334
335
336
335
334
334
335
335
335
337
339
340
340
339
339
339
340
339
338
338
339
340
340
340
341
342
345
347
345
344
344
345
345
344
343
344
347
349
349
347
348
348
349
350
347
343
342
342
341
341
342
341
338
336
335
333
333
333
333
332
333
334
338
339
337
337
338
339
340
338
337
338
339
338
338
340
342
340
338
337
338
340
340
336
333
332
333
335
334
333
333
335
335
334
333
334
335
336
335
334
335
338
342
348
357
370
380
388
393
392
383
368
348
328
313
304
301
302
308
315
321
327
330
331
333
334
334
334
334
334
335
336
336
336
338
340
341
342
341
340
339
340
341
340
339
339
340
341
339
339
340
344
345
345
344
344
345
344
343
342
343
346
349
348
347
347
348
347
347
345
342
342
342
341
340
342
343
339
336
335
332
332
334
333
333
334
335
336
338
339
340
340
340
340
338
339
340
341
340
338
341
344
342
338
337
338
340
340
338
338
334
334
335
335
335
335
335
335
334
333
335
336
336
335
334
335
337
341
347
355
366
377
387
393
394
387
372
352
331
315
305
303
304
308
314
321
327
331
331
333
335
335
337
336
334
333
335
336
336
338
340
342
343
341
339
340
341
341
341
340
340
341
342
341
339
340
344
346
345
344
344
345
345
345
343
344
346
350
350
348
347
348
348
347
346
344
343
342
342
342
343
343
340
337
336
334
334
334
333
333
334
335
336
339
339
340
339
339
338
338
339
339
340
339
339
341
344
342
340
338
339
340
340
338
336
335
335
335
334
334
335
336
336
335
335
336
337
338
336
335
335
338
342
347
354
365
376
385
392
394
389
376
356
335
318
307
302
302
306
312
320
325
329
330
332
333
334
334
334
334
334
335
335
335
338
339
341
342
339
338
338
339
339
339
338
339
340
340
339
339
340
342
344
345
343
343
343
343
343
343
343
345
348
349
347
347
348
348
348
347
344
342
342
341
341
342
343
341
337
335
334
333
333
332
331
332
334
336
337
338
339
341
340
338
337
337
339
339
338
338
339
343
342
340
337
338
340
341
339
336
335
334
335
335
334
334
334
334
334
333
334
335
335
334
334
334
337
340
344
353
364
375
384
393
397
392
379
361
340
321
309
304
303
308
313
318
324
329
331
334
335
336
336
333
333
336
336
336
335
337
340
342
341
340
339
340
342
342
341
339
339
340
341
339
338
339
343
345
344
343
344
345
344
343
343
344
345
349
349
349
348
349
349
348
346
345
343
342
342
341
342
342
341
337
336
334
335
333
332
332
332
334
337
338
338
338
339
339
338
338
338
339
339
338
338
340
343
342
339
337
337
339
340
339
336
334
333
334
334
334
333
334
335
335
333
334
336
337
335
335
335
336
340
344
351
362
373
382
390
395
393
382
365
344
323
312
305
302
304
310
317
323
329
331
332
333
335
337
335
334
334
335
335
334
336
339
341
341
339
338
338
340
340
339
339
339
340
340
339
338
339
341
345
344
344
344
345
345
344
343
343
344
347
348
349
347
348
348
347
347
345
343
342
342
341
342
343
342
339
336
335
334
333
333
333
334
335
336
338
339
339
339
340
338
337
338
339
339
338
338
339
343
344
341
337
338
339
340
339
336
333
334
335
335
334
334
336
336
335
334
335
335
335
334
334
335
337
339
342
349
358
370
380
388
392
392
383
367
346
326
312
304
302
304
310
317
323
328
330
331
333
335
336
334
333
333
333
335
334
335
338
340
340
339
338
338
339
340
339
338
339
340
339
339
338
338
341
345
345
344
343
345
344
344
344
343
344
346
348
348
348
348
348
347
347
346
344
343
343
343
343
344
343
339
336
336
334
333
333
333
334
335
336
336
338
339
340
340
338
338
339
340
340
339
339
339
341
343
340
338
338
338
338
338
337
334
333
334
334
334
334
336
336
335
334
335
336
336
335
335
335
336
339
342
348
357
368
379
388
394
395
386
371
351
331
315
307
304
303
307
314
321
327
330
331
333
335
336
335
334
334
335
335
335
336
339
340
340
338
337
338
339
340
339
337
338
339
339
339
338
339
341
344
345
344
344
345
345
343
342
342
344
346
348
347
347
348
348
347
345
345
343
342
342
341
343
343
342
339
337
337
334
333
332
331
332
332
333
336
338
338
339
339
338
337
338
338
339
338
338
338
341
343
341
338
337
339
340
340
338
335
335
336
336
334
334
336
336
336
334
335
337
338
337
336
336
337
339
341
348
356
368
378
385
392
397
390
375
354
334
318
308
304
303
308
315
322
327
330
332
334
336
336
335
335
335
336
335
334
334
337
340
341
340
339
340
341
342
341
339
340
340
340
339
340
339
341
344
345
345
344
344
344
343
343
344
344
347
349
349
348
348
348
348
347
347
345
343
342
342
342
343
343
340
337
336
336
335
334
334
333
335
335
336
338
339
339
340
340
338
339
339
339
339
339
339
341
343
341
337
337
338
339
339
337
335
335
335
335
334
334
335
336
335
334
335
335
335
335
335
336
337
338
341
346
355
365
376
384
391
395
391
378
358
336
320
309
304
303
306
313
320
326
329
330
333
335
336
334
334
334
335
337
335
335
337
341
341
341
340
340
340
341
340
340
340
342
341
340
339
339
341
344
345
344
345
345
345
344
343
343
344
345
347
348
348
349
348
347
346
346
344
343
341
341
342
344
343
340
336
336
335
334
333
332
333
334
334
335
337
339
340
339
337
336
337
338
339
339
338
338
340
343
341
337
337
338
340
340
338
335
334
334
335
334
334
335
336
334
334
335
336
336
336
335
335
337
338
341
343
352
364
375
383
390
396
394
382
362
340
322
310
304
302
305
312
319
324
328
330
332
335
337
336
334
334
335
335
335
334
336
340
342
340
338
