0
396
398
409
419
423
423
426
435
443
443
440
440
445
444
438
428
419
415
409
395
377
364
360
355
347
337
330
330
332
328
322
320
325
330
327
321
321
327
332
330
327
326
330
334
332
327
325
330
333
332
328
324
328
332
330
325
323
327
331
329
323
322
328
334
330
325
324
329
334
332
330
332
339
343
339
328
317
314
318
317
314
312
318
320
319
314
312
316
327
337
344
365
395
422
423
379
302
238
192
153
127
143
202
271
320
335
334
334
337
337
333
333
339
344
345
341
341
347
353
353
349
349
354
361
362
358
358
364
370
371
370
371
379
389
392
392
396
405
416
421
418
420
427
434
431
425
421
423
424
418
405
393
387
381
368
352
340
338
337
332
322
316
318
321
319
313
312
318
324
323
318
317
322
327
327
324
322
325
331
328
321
320
325
330
329
322
319
323
328
327
320
316
320
326
324
317
314
319
325
324
319
318
325
331
331
326
323
328
336
341
339
336
338
334
327
317
315
319
324
325
318
316
319
325
323
320
325
338
355
378
396
414
417
383
321
265
219
172
153
178
226
275
316
338
339
330
325
330
338
339
335
334
340
346
347
342
339
344
350
350
345
343
348
354
356
352
351
356
364
365
363
364
372
383
387
386
389
397
405
406
401
399
402
406
405
397
390
388
389
382
369
357
352
349
341
329
321
320
321
318
311
306
310
316
316
312
310
314
322
321
315
313
317
324
324
317
315
319
324
323
316
312
317
323
321
315
311
314
320
319
313
310
312
318
317
313
310
313
319
318
311
308
312
318
318
313
312
318
325
324
319
316
319
329
335
333
329
331
332
325
315
310
314
321
322
317
314
318
322
321
317
319
331
347
365
378
393
404
385
329
276
235
199
170
181
221
269
312
338
342
334
327
330
338
342
338
336
340
347
348
344
343
348
355
356
351
347
353
360
360
355
353
359
368
370
368
368
374
385
390
389
390
398
407
411
408
408
413
418
416
407
399
398
400
394
381
369
364
361
352
341
332
330
331
329
320
316
319
324
324
319
316
320
328
328
322
319
322
329
330
324
320
324
329
328
322
317
320
325
325
320
316
318
322
320
313
309
312
319
319
314
309
312
318
316
310
307
308
313
313
308
304
307
315
316
311
309
313
320
322
318
320
328
335
334
325
317
314
314
314
309
307
311
318
318
312
307
309
317
324
327
334
358
385
400
387
339
278
232
200
161
137
161
223
281
316
325
327
329
330
326
324
328
336
337
332
330
334
341
342
336
334
338
346
347
342
338
342
351
353
350
348
354
364
369
367
368
377
389
394
391
391
398
409
411
406
402
403
407
404
393
383
378
377
366
349
334
328
328
321
310
301
300
304
303
296
291
294
301
302
297
294
298
305
306
303
299
302
308
308
303
298
302
310
310
303
299
302
309
310
303
297
300
306
308
302
295
298
306
306
301
296
298
305
307
302
297
300
307
308
303
300
304
312
312
305
300
303
312
315
309
305
310
318
320
314
311
316
324
329
329
327
332
338
335
323
311
310
318
322
319
317
319
327
327
320
317
324
340
352
366
385
408
422
395
324
245
197
184
161
153
187
253
321
353
352
342
342
350
354
352
350
353
361
362
357
355
359
367
370
364
362
365
374
376
372
369
373
383
387
383
381
389
401
407
405
406
414
428
435
434
433
439
450
454
448
440
439
443
439
426
411
403
400
390
373
358
352
353
349
337
328
327
333
334
328
322
323
331
332
327
323
327
336
339
333
329
331
340
342
336
331
332
340
343
337
332
334
340
341
334
329
331
338
338
330
324
326
334
337
332
326
328
336
337
332
327
330
337
340
333
328
329
337
339
332
328
331
339
341
334
329
332
340
342
338
334
335
342
344
338
334
337
344
346
341
337
340
349
350
345
340
342
353
361
359
356
357
361
356
343
334
336
347
350
344
340
342
350
352
347
346
356
372
395
414
431
442
426
368
301
247
204
173
184
226
279
325
356
366
358
350
352
361
366
361
357
361
370
375
370
364
366
375
380
373
370
373
381
384
379
375
379
389
394
390
387
391
402
409
408
407
413
424
431
427
424
428
437
439
431
422
420
424
422
409
395
388
387
381
366
353
349
351
348
339
331
329
336
337
331
324
326
335
339
335
329
331
339
343
338
331
333
341
344
338
332
333
342
344
339
332
331
339
340
335
329
330
336
338
331
326
327
334
337
331
324
326
331
335
329
323
325
333
336
331
324
326
335
337
331
325
327
334
337
331
325
327
335
339
332
326
327
336
342
337
330
330
338
343
340
337
343
355
358
350
338
333
336
336
329
324
327
337
340
334
326
326
336
340
339
338
346
368
391
404
412
403
367
319
272
225
175
173
214
265
302
328
345
351
345
338
339
348
354
352
346
348
356
361
355
348
350
359
365
359
354
356
365
370
365
360
362
371
377
375
371
375
388
396
394
392
397
409
417
415
410
412
420
423
416
405
402
405
403
388
372
364
364
360
348
335
329
332
332
323
314
312
319
322
317
311
313
321
326
322
316
316
325
331
326
320
320
328
333
328
321
321
328
332
327
322
320
327
330
325
318
316
323
327
322
315
315
323
327
321
314
315
323
327
323
315
315
323
327
322
315
314
322
326
322
316
316
323
327
323
317
317
325
330
326
318
318
325
331
330
328
333
343
346
339
329
325
327
328
324
318
320
329
333
327
320
320
328
331
329
330
339
358
383
397
403
392
355
296
240
205
174
162
187
235
284
322
344
349
342
334
336
345
352
349
342
343
352
359
355
349
348
356
362
359
353
354
362
368
365
360
362
372
378
377
373
377
389
398
398
398
403
415
424
424
420
421
429
433
428
417
412
414
411
398
382
370
366
361
349
335
327
329
329
321
311
309
316
320
316
308
307
314
320
316
311
312
320
326
322
314
315
325
331
328
319
318
325
330
326
320
320
327
331
327
320
317
323
328
324
317
316
322
327
323
316
314
323
327
324
317
315
323
329
324
316
315
322
328
325
318
318
326
331
326
319
319
326
331
326
319
320
329
332
327
320
322
335
345
343
340
340
344
344
336
326
320
323
330
327
320
320
327
333
330
322
320
328
337
341
344
358
388
414
422
396
335
269
223
195
162
147
183
247
304
336
345
349
350
345
340
342
350
358
356
349
348
356
364
362
355
354
362
369
366
360
360
370
377
375
370
370
381
390
388
385
388
400
412
415
413
417
429
440
439
435
434
440
443
436
424
415
415
412
399
380
368
364
361
348
333
324
326
328
322
314
312
319
324
320
312
312
320
326
323
316
316
324
331
329
322
321
328
334
331
323
322
329
336
333
325
322
329
335
330
322
320
327
332
327
319
318
326
332
327
320
318
325
332
330
322
320
325
331
329
321
319
326
332
330
323
321
329
335
332
326
324
330
335
333
328
333
345
351
349
342
340
347
354
349
337
332
337
341
337
329
327
334
340
337
329
326
333
344
348
347
363
396
425
435
412
357
302
259
218
164
156
202
266
314
335
343
349
353
351
344
343
352
360
359
352
350
359
367
365
357
356
363
370
369
363
361
369
377
376
371
371
379
389
389
385
387
396
408
412
409
411
422
432
432
424
421
427
434
429
416
408
408
406
394
376
363
359
357
347
334
326
328
332
327
316
312
318
325
325
318
316
322
328
327
321
320
326
332
330
322
319
324
332
329
323
321
326
331
328
321
319
326
333
328
319
315
320
327
325
317
314
319
326
323
316
313
320
327
325
318
315
321
328
325
318
316
323
329
326
317
314
320
327
325
322
326
337
346
342
332
327
334
343
339
328
322
325
330
327
320
316
322
329
328
320
318
325
337
342
341
356
382
409
414
381
327
283
250
205
157
162
214
276
314
328
331
335
341
339
333
332
340
347
347
341
339
345
353
353
347
344
351
358
357
352
350
357
365
366
360
358
366
377
379
375
376
386
398
403
400
401
411
423
424
417
413
417
422
417
405
396
394
393
382
363
350
347
347
340
327
319
320
325
321
311
307
312
320
319
311
308
315
324
323
317
314
320
329
329
322
320
323
330
329
321
319
325
332
330
322
319
323
330
328
321
317
321
329
327
317
314
318
326
325
318
314
318
326
326
318
314
319
326
325
317
314
320
328
328
319
316
321
330
329
321
317
323
332
330
320
318
330
344
346
339
333
336
344
345
338
330
332
336
332
322
318
324
332
331
323
319
324
332
335
338
343
367
395
413
411
382
328
272
228
197
162
162
208
266
313
337
347
351
347
340
339
346
355
355
349
346
353
361
362
354
350
356
365
366
359
357
362
370
371
366
365
372
382
385
382
383
391
403
408
406
409
418
432
436
430
427
432
439
437
425
416
415
414
405
387
372
365
362
353
338
327
325
330
326
316
311
313
319
319
311
307
313
322
323
316
312
317
326
326
319
317
322
330
330
322
317
321
330
331
322
317
320
328
328
320
315
319
327
325
317
314
318
325
324
316
312
318
326
326
318
313
317
325
326
319
314
318
326
328
320
316
320
328
328
323
316
320
327
328
322
317
321
329
330
323
319
322
331
333
327
322
324
332
336
335
338
345
351
349
340
337
343
349
347
335
327
329
335
335
327
324
327
335
334
326
322
331
347
359
370
388
413
428
402
330
251
205
192
165
152
185
252
321
353
351
341
341
349
352
348
345
350
359
361
355
351
355
364
367
361
357
362
369
371
365
361
366
375
378
373
371
378
389
394
392
394
403
416
422
419
419
429
442
446
437
431
434
441
437
423
411
405
403
393
375
359
352
352
347
335
325
323
329
327
317
312
315
323
326
320
315
319
329
331
325
321
325
334
335
329
326
330
338
338
331
326
330
338
338
330
325
328
336
336
328
323
326
334
335
327
322
326
332
332
325
321
324
333
333
327
322
327
334
334
328
323
326
334
335
328
323
326
334
336
329
324
327
336
337
330
324
328
337
337
329
325
328
340
347
346
344
346
353
352
346
343
344
347
344
335
327
329
338
339
331
326
330
338
339
333
333
343
360
381
400
418
432
420
365
301
249
202
164
170
211
265
312
343
352
345
337
340
348
352
348
344
349
357
359
353
350
354
363
366
360
354
358
367
369
364
360
364
373
378
373
371
377
389
394
392
390
397
411
419
417
414
417
427
429
422
415
414
418
415
403
389
383
382
374
358
344
340
342
338
326
318
319
324
324
316
310
313
323
326
320
315
318
327
330
323
319
322
330
332
328
321
323
332
335
328
321
321
329
331
325
319
320
327
329
321
317
318
326
326
320
314
317
325
327
320
314
317
326
328
321
315
318
326
328
320
315
318
326
328
323
318
320
328
330
324
318
321
328
331
324
319
321
330
334
328
325
331
343
347
340
335
338
346
345
335
324
323
329
330
324
319
322
331
334
326
319
320
331
340
338
343
367
396
417
409
370
321
283
250
194
158
180
243
296
319
326
333
341
344
338
333
337
348
353
347
342
347
355
358
351
344
348
358
362
356
350
352
361
366
361
358
362
372
377
375
373
379
390
398
397
397
402
414
421
417
411
412
420
421
411
399
396
397
392
376
360
352
352
348
337
325
321
325
324
316
307
306
314
318
312
306
309
318
322
316
312
315
324
328
322
317
318
325
329
323
318
318
325
328
322
315
315
323
327
321
314
316
324
328
321
313
315
323
328
321
314
315
322
326
320
315
316
323
326
321
314
316
324
328
321
314
315
325
331
326
320
320
329
333
328
323
329
341
346
340
333
331
334
331
323
317
319
328
333
328
321
321
330
334
329
326
333
351
373
388
399
406
390
338
274
230
208
182
177
207
256
309
345
354
344
334
334
346
354
349
344
345
354
360
356
352
353
361
366
361
355
356
366
371
367
362
364
374
381
379
374
378
390
399
399
398
404
418
427
426
424
428
438
444
437
428
424
427
425
412
395
386
381
374
358
342
334
336
336
325
316
313
320
322
314
308
309
318
322
316
310
311
320
327
322
316
317
326
331
326
320
321
328
333
329
322
321
328
332
327
319
319
326
330
324
316
316
324
328
321
314
315
323
328
323
315
315
324
331
324
317
317
324
329
326
318
317
325
330
324
318
318
327
331
326
318
318
327
333
329
322
322
331
336
333
327
328
341
349
345
339
337
340
338
327
318
319
330
336
331
323
322
330
335
330
325
332
351
372
390
404
417
410
362
281
214
186
173
161
176
226
290
343
361
353
341
340
349
357
354
348
349
357
363
360
353
355
364
369
365
360
362
370
375
371
365
368
377
385
383
379
381
394
404
406
403
408
422
433
434
432
436
446
452
447
438
434
438
436
424
406
395
391
383
367
349
339
340
339
330
318
313
318
321
315
307
305
313
319
314
307
309
318
325
321
313
313
323
329
326
317
317
325
331
325
317
317
325
331
326
318
317
324
329
324
315
314
322
327
323
315
315
323
329
324
316
315
323
328
325
318
316
324
330
326
319
319
326
331
326
319
319
326
332
328
320
319
327
332
329
322
323
332
337
331
322
321
330
336
332
325
325
335
342
339
332
331
339
350
351
346
345
350
351
340
327
324
332
340
337
331
331
338
344
339
331
335
348
365
382
399
421
443
432
371
299
248
211
170
163
198
258
316
351
355
345
341
348
356
355
350
350
358
365
362
355
353
362
369
368
361
360
368
375
373
367
366
375
384
383
376
377
388
398
398
396
400
412
424
424
420
423
434
442
438
430
427
430
432
423
410
401
398
395
380
363
353
352
351
341
329
323
328
332
326
317
316
322
329
326
318
316
324
332
331
325
323
330
338
334
326
324
332
338
335
326
324
330
336
333
326
324
331
336
332
323
321
328
334
330
322
320
326
332
329
320
318
324
332
330
322
320
327
333
330
323
322
328
335
332
324
321
328
334
331
324
323
330
336
333
325
323
333
340
337
330
328
335
347
349
342
339
344
347
338
325
321
328
336
334
328
324
331
339
336
328
326
337
351
357
370
390
418
433
407
344
292
257
218
174
175
222
284
330
348
346
344
349
355
354
347
346
355
363
362
356
354
361
368
365
357
356
363
371
369
363
361
370
379
379
372
371
380
390
391
387
389
399
412
414
411
412
420
431
429
421
416
422
427
421
407
396
394
393
382
363
349
349
349
341
327
320
323
327
323
314
310
315
323
320
312
310
317
326
325
318
315
322
330
328
322
319
324
332
330
321
317
323
330
328
321
316
323
329
327
318
314
320
327
325
317
313
318
325
323
315
312
317
325
322
316
311
319
325
323
316
313
319
327
325
318
314
319
328
327
319
316
323
331
331
326
327
336
345
343
333
325
323
327
325
319
317
323
330
329
323
319
322
328
331
329
334
351
381
400
408
398
361
306
251
211
174
156
183
236
284
320
341
348
343
334
332
340
350
350
344
342
349
357
356
349
347
354
363
362
356
354
360
369
370
363
361
368
379
380
376
377
388
399
403
401
404
415
430
433
428
426
432
441
440
429
420
419
419
408
389
373
367
365
354
338
327
325
328
324
315
307
309
316
314
306
302
307
315
316
309
306
313
322
323
316
313
318
326
325
318
314
319
327
326
320
315
319
327
326
318
314
318
325
324
315
310
315
323
323
314
311
313
322
321
313
310
314
322
322
316
311
316
324
324
317
313
318
326
327
320
316
319
327
327
320
317
321
330
331
324
319
324
336
341
336
333
337
344
339
324
315
319
329
331
324
318
322
331
332
324
319
326
344
354
364
383
409
429
408
339
259
211
196
169
151
178
242
310
346
345
336
336
346
349
344
341
345
355
356
350
347
352
362
364
358
352
357
367
369
361
358
364
374
377
372
369
376
389
395
393
393
403
418
424
422
421
429
442
445
439
433
435
440
435
421
406
399
397
386
366
349
343
343
337
324
315
315
319
317
308
302
305
313
313
306
302
307
316
318
311
308
314
324
326
317
312
317
328
327
319
314
318
327
327
320
316
319
328
328
319
314
318
327
328
320
314
317
325
327
320
315
319
327
327
319
314
319
327
330
324
319
322
330
330
323
318
321
330
331
323
318
323
331
333
326
320
324
332
333
330
325
327
336
339
332
327
335
350
353
345
340
340
345
340
328
323
326
336
339
333
327
331
339
341
335
334
347
369
394
409
420
419
388
328
262
218
191
178
196
236
286
333
360
363
352
343
348
359
364
357
351
355
366
370
366
361
363
372
375
367
362
366
377
381
375
371
375
384
389
385
383
391
403
409
407
408
415
428
436
433
431
435
446
449
441
430
427
432
429
415
398
390
388
379
362
348
343
347
344
334
324
323
329
330
322
316
319
328
330
325
321
324
333
336
331
325
326
335
339
333
327
329
337
339
333
327
329
338
341
333
327
327
335
338
331
323
323
332
335
329
322
323
331
333
327
321
325
332
334
327
322
325
334
335
328
322
324
334
337
329
322
324
333
336
329
323
326
336
340
334
326
329
338
346
343
338
339
347
347
336
324
323
332
336
331
324
326
336
339
334
328
329
340
350
348
355
378
406
423
409
366
317
275
240
188
169
203
262
309
328
334
339
345
350
344
339
342
352
357
351
346
349
358
361
356
350
352
360
365
361
355
357
366
371
366
361
365
376
382
378
375
380
394
401
399
397
402
416
422
418
410
410
416
417
407
397
390
391
387
370
354
347
348
346
333
320
318
324
324
316
307
307
316
320
315
306
307
316
322
317
312
312
321
326
320
314
316
324
328
322
314
316
324
327
321
314
314
323
328
321
313
313
321
324
318
314
313
320
324
317
311
312
320
325
318
311
312
321
326
320
313
313
321
326
321
314
314
322
327
322
315
316
326
331
325
318
319
327
334
333
331
332
341
344
335
321
318
324
329
325
319
319
327
332
325
318
319
327
336
338
337
355
384
409
410
380
331
284
248
211
167
167
213
270
309
327
335
341
343
338
332
334
344
351
348
341
342
351
358
353
346
347
356
362
357
351
352
360
367
364
358
362
371
379
377
374
377
391
401
402
401
405
418
428
426
420
420
427
431
424
410
403
403
398
383
363
353
353
350
338
324
320
324
327
319
309
309
316
319
313
306
307
315
322
318
311
312
322
328
323
316
317
325
331
327
319
319
328
335
329
320
321
327
333
328
319
319
326
332
326
317
316
324
328
324
316
315
322
329
325
316
315
323
330
327
318
316
324
331
327
320
318
326
333
329
322
322
330
336
331
324
323
329
334
331
325
324
331
339
333
326
326
339
351
350
340
338
343
346
337
324
322
330
339
336
328
328
334
339
335
327
329
343
358
367
381
397
419
415
366
289
232
213
202
181
183
227
292
344
357
348
341
346
355
354
347
347
356
363
360
353
352
361
370
367
360
359
367
375
372
365
365
373
382
381
376
376
387
396
398
397
401
414
425
427
425
429
439
448
446
438
435
439
440
431
415
404
402
397
382
363
352
350
349
339
327
321
325
329
325
315
310
316
323
321
314
312
320
328
326
318
317
325
333
330
321
320
327
334
331
322
320
327
335
333
325
322
327
334
331
323
320
325
331
329
322
319
325
330
327
320
318
325
333
329
322
319
325
333
331
323
320
326
334
331
322
320
326
335
333
325
323
330
337
334
326
323
330
338
334
326
325
332
340
337
329
326
334
343
342
334
337
348
356
353
343
338
337
340
336
328
326
334
342
340
332
330
336
343
341
339
345
363
392
412
425
426
400
348
292
242
197
174
195
240
285
321
346
358
354
344
342
351
359
359
352
350
356
365
365
359
355
362
371
368
362
359
366
374
373
368
366
374
383
384
380
380
389
400
403
400
402
413
424
427
421
421
427
435
432
421
415
416
418
409
391
379
374
373
362
345
334
335
338
332
320
315
318
325
322
314
310
316
324
324
318
315
322
330
329
320
317
324
331
331
323
320
325
332
331
324
320
326
333
330
322
319
322
329
327
319
315
320
327
325
317
313
317
326
325
317
313
318
326
325
318
313
318
326
325
317
313
320
327
325
317
314
319
328
326
317
315
321
329
328
322
317
324
333
334
330
329
335
343
340
330
320
320
327
326
319
317
322
330
329
320
315
321
331
335
332
336
358
385
402
400
376
332
288
246
205
165
172
220
271
302
319
333
342
339
331
329
336
346
347
340
337
343
352
351
344
341
347
356
356
350
346
352
362
363
356
353
361
373
375
369
369
378
391
395
393
394
404
417
421
414
411
416
425
423
411
400
398
399
390
375
361
355
353
344
330
320
319
325
321
311
305
308
316
315
307
304
308
317
318
312
309
313
323
324
318
314
318
326
327
320
315
320
329
327
319
315
320
329
330
321
314
317
325
325
317
311
316
325
326
318
312
316
324
325
316
311
317
326
325
318
313
318
327
328
320
314
318
328
329
321
317
321
329
329
323
319
324
333
332
325
321
328
343
347
339
334
337
341
336
323
318
322
332
334
326
321
325
333
332
324
321
331
348
358
371
386
405
408
369
300
240
213
200
179
180
219
280
333
352
345
337
339
349
352
346
342
347
357
361
356
350
354
363
365
358
353
357
368
370
364
361
366
376
380
376
373
380
392
397
394
395
405
420
426
424
423
429
443
445
437
429
430
435
430
415
401
394
392
382
363
347
342
345
341
326
317
319
326
324
315
309
312
320
322
315
310
313
323
326
320
315
318
328
329
322
319
322
332
333
325
320
323
332
334
326
320
322
331
332
323
318
320
329
332
323
317
320
330
330
321
315
319
330
332
325
319
321
330
332
325
318
321
331
333
325
320
322
333
335
327
322
325
335
337
328
322
325
334
337
331
325
328
339
343
337
336
342
351
353
344
334
330
334
336
331
327
329
340
339
332
328
331
338
342
342
346
362
393
417
424
407
366
310
258
221
189
172
197
246
295
330
349
359
358
349
344
348
360
363
358
352
356
366
370
364
359
363
371
375
367
363
366
377
381
376
372
375
385
392
389
388
393
407
415
414
414
424
437
444
440
435
439
448
449
439
429
425
426
420
402
384
375
373
367
353
339
334
338
337
328
320
319
326
328
321
314
316
325
330
322
317
320
331
335
328
321
324
333
336
331
326
327
335
338
332
324
326
335
339
331
322
323
332
334
327
321
323
332
335
327
320
322
332
334
327
319
321
331
336
329
321
322
331
335
328
322
323
333
336
330
323
323
332
336
329
322
323
333
337
332
326
327
336
341
334
328
332
345
353
347
339
340
345
343
330
321
321
331
337
331
324
326
335
338
331
324
331
348
358
370
382
402
421
406
349
290
250
216
180
178
212
267
317
342
344
336
336
345
350
347
342
344
354
358
352
346
349
358
363
358
351
353
362
366
360
354
357
367
374
370
364
368
380
388
385
381
387
401
410
409
406
409
421
426
419
411
410
416
417
405
390
381
381
376
360
344
337
340
339
328
316
313
318
321
314
306
307
314
318
313
306
308
318
324
320
313
314
322
328
323
315
316
325
330
322
314
317
326
329
320
313
313
324
329
323
313
312
320
324
318
311
312
320
324
318
312
312
321
325
319
311
311
319
323
317
311
311
320
325
319
312
313
321
325
319
312
312
321
327
321
315
316
325
330
325
319
320
331
340
340
333
332
340
343
333
319
315
325
333
326
319
320
328
334
329
320
321
335
346
349
359
379
407
419
389
325
266
232
214
180
170
204
265
316
338
340
340
347
351
347
340
343
354
361
357
350
351
361
367
362
356
356
365
370
364
358
359
369
377
374
368
371
382
391
389
386
392
406
418
418
414
419
432
440
437
430
429
435
438
427
412
403
402
396
379
360
349
349
347
337
323
319
324
326
319
309
307
314
320
315
309
309
319
325
321
313
313
322
329
325
318
317
326
333
329
320
319
327
334
329
320
318
327
333
327
319
317
325
330
323
316
315
324
329
324
316
315
323
329
324
316
317
325
330
325
317
316
326
332
327
319
319
327
333
328
321
321
329
335
330
321
321
329
336
331
324
323
331
338
334
327
327
335
341
339
337
342
350
355
348
334
327
330
335
334
327
327
336
342
337
327
326
335
343
346
347
360
389
415
422
400
349
288
241
213
185
167
189
245
298
332
346
352
354
349
342
344
354
361
359
352
352
360
366
364
356
358
367
374
369
361
361
371
379
376
369
370
381
391
390
386
390
403
415
418
416
420
433
444
443
438
439
447
453
446
431
423
424
421
405
384
370
367
364
351
336
328
330
332
325
314
312
317
323
319
310
308
317
325
320
313
314
322
329
325
316
315
323
331
328
320
319
327
332
329
321
320
328
334
329
321
319
327
333
329
319
317
324
332
327
318
315
322
329
325
318
317
323
330
327
320
317
324
331
327
321
320
327
333
330
322
320
329
335
331
323
321
327
334
331
323
322
330
338
334
325
324
332
339
336
328
326
336
344
341
334
338
349
358
353
342
334
335
337
333
326
327
336
343
339
330
328
335
342
342
342
349
371
400
419
423
406
364
309
255
218
181
176
207
255
300
333
354
360
353
344
342
351
361
359
352
352
360
368
366
360
357
365
372
370
363
361
369
377
376
371
369
378
388
390
383
385
395
407
409
407
411
422
436
436
432
431
438
446
441
430
422
423
423
411
393
382
378
374
360
344
336
337
340
333
322
317
321
327
322
313
310
317
327
325
316
313
322
332
330
321
318
325
333
331
323
320
328
335
331
322
320
325
333
331
323
319
326
333
330
322
318
323
330
327
320
318
324
330
326
318
316
322
330
329
321
318
323
330
327
320
318
325
333
330
321
318
325
332
329
321
320
326
334
331
323
322
330
337
336
329
326
332
343
346
340
337
342
347
339
326
320
326
334
332
324
322
329
336
333
324
321
331
347
351
358
374
399
423
415
366
308
267
235
188
169
196
255
306
332
336
336
342
350
349
341
339
347
357
356
349
347
354
362
360
353
349
356
364
363
356
353
360
369
368
362
362
371
382
383
379
379
389
402
407
403
403
413
425
426
418
414
418
423
416
403
393
391
389
378
360
348
346
346
338
324
318
319
325
322
312
306
311
320
318
310
308
314
322
321
313
311
318
328
326
318
314
320
328
327
319
316
321
329
326
317
313
319
326
323
314
310
316
324
322
313
309
315
323
322
313
308
314
322
321
312
309
314
320
319
312
308
315
323
323
313
309
314
323
322
315
313
318
326
326
318
315
322
335
339
333
328
333
338
331
319
313
319
329
328
320
316
323
331
329
321
317
327
342
348
355
372
397
416
399
342
279
237
219
181
167
193
251
308
337
341
336
338
346
346
341
339
346
355
356
351
349
354
363
363
354
351
357
368
369
361
358
364
375
375
369
367
376
389
393
390
391
400
415
420
417
418
428
440
442
434
429
432
436
430
415
402
398
396
385
364
349
345
346
339
325
316
319
326
323
314
309
313
320
321
314
309
314
324
325
318
314
319
329
329
321
316
322
332
332
323
318
323
332
331
321
318
322
331
330
321
316
321
329
329
320
315
321
329
329
320
315
319
328
327
321
318
321
329
328
321
317
323
331
332
322
318
323
331
332
324
319
325
335
336
329
325
329
337
339
337
338
343
351
350
338
327
326
333
333
327
322
327
338
338
330
323
327
338
343
343
348
373
403
422
416
380
321
268
230
201
169
172
220
278
320
340
348
353
351
343
340
346
357
359
352
348
354
364
365
358
355
361
371
370
363
357
363
374
377
371
369
375
389
392
389
387
396
411
417
415
416
427
442
445
440
436
442
451
447
433
422
419
420
410
390
372
364
362
353
338
328
325
330
327
318
310
312
320
321
313
309
313
323
325
318
314
317
327
328
321
318
323
333
334
326
320
323
332
333
325
320
323
332
333
325
320
324
332
332
323
318
321
330
332
322
317
320
330
331
324
317
321
331
332
324
319
322
331
332
324
319
324
333
334
325
321
325
334
336
329
323
328
340
342
334
327
336
350
353
344
338
338
342
337
327
323
327
336
338
330
326
330
339
340
334
332
341
355
371
388
405
426
427
385
319
263
225
188
179
203
250
301
340
353
347
340
343
352
355
350
346
351
360
362
356
353
356
365
367
361
356
359
370
374
367
361
366
376
379
374
371
378
391
397
394
395
403
416
424
421
418
424
435
437
428
421
420
424
420
405
389
382
381
372
357
344
340
343
339
329
320
320
326
328
319
312
313
324
328
319
313
316
326
330
324
317
320
330
333
325
319
322
332
334
325
319
321
331
334
326
319
320
328
330
324
318
319
327
328
321
316
317
328
330
322
316
318
327
329
322
316
317
326
330
324
318
319
327
329
323
319
322
330
332
326
320
323
333
340
337
332
333
342
343
331
319
318
328
332
327
319
320
331
333
326
320
321
332
341
341
347
369
397
414
400
353
299
259
232
191
168
192
250
299
323
331
336
344
346
339
334
339
349
354
350
343
346
357
360
353
347
350
361
365
358
352
355
366
371
366
362
366
378
385
381
380
386
399
408
407
407
412
423
428
421
416
419
425
425
414
402
395
394
385
370
353
345
348
347
336
322
316
321
327
323
317
316
319
319
313
309
312
321
324
318
315
318
328
331
322
317
320
328
330
323
318
319
329
332
323
312
313
323
328
322
314
313
322
328
319
309
309
322
327
320
311
309
315
317
313
310
311
317
319
313
308
312
323
324
315
308
310
320
325
319
312
313
321
325
321
316
322
335
338
330
320
315
318
316
307
300
303
313
318
314
306
305
315
319
312
309
315
334
362
385
410
432
424
375
314
268
221
165
154
191
250
308
347
355
342
328
330
345
353
347
339
342
355
363
359
353
354
362
370
369
363
363
374
383
382
379
381
393
402
399
397
400
413
423
424
426
434
448
458
460
456
461
471
478
471
461
458
462
460
446
425
411
402
393
378
365
355
352
347
332
317
317
323
328
323
316
313
320
328
323
315
316
330
336
329
326
338
356
362
354
343
344
354
357
353
343
338
340
346
340
334
329
326
326
320
313
331
353
377
391
395
379
344
328
310
278
255
276
311
338
325
341
357
358
352
346
330
305
293
296
293
296
289
266
248
266
287
295
291
320
342
349
355
351
365
441
531
560
452
277
145
86
35
33
84
137
157
176
232
312
382
394
351
333
367
387
370
339
253
153
136
198
239
265
341
441
423
301
268
368
495
530
448
317
253
284
351
395
424
435
411
398
417
446
452
439
430
434
438
431
415
407
406
400
386
368
353
349
340
317
293
285
291
291
279
268
266
275
281
273
263
262
272
279
274
265
262
275
283
275
266
266
275
282
275
264
262
271
280
273
264
261
271
274
268
262
263
276
286
284
275
275
285
296
294
286
285
300
312
305
298
297
311
319
308
291
289
301
310
307
302
305
318
326
320
313
316
329
335
329
332
360
394
422
425
403
380
346
291
202
153
178
238
290
315
324
333
345
353
348
340
340
349
358
358
352
348
352
360
359
354
350
356
366
362
353
352
363
371
368
361
361
371
379
382
379
381
391
403
406
402
402
413
425
419
409
410
419
425
416
398
387
386
382
365
343
333
338
338
324
309
310
326
333
319
300
292
304
314
308
298
300
313
321
314
302
303
318
329
325
314
312
323
334
330
322
322
334
345
340
332
335
351
364
360
350
346
356
367
363
349
338
337
342
342
336
336
343
350
349
342
338
343
350
349
345
346
364
396
421
437
436
417
378
325
266
197
167
195
247
289
322
351
370
371
363
360
368
379
380
374
373
381
392
390
382
380
391
402
399
391
390
402
412
406
396
396
411
424
421
413
415
432
446
445
439
444
460
474
472
463
460
471
476
469
455
445
443
441
426
403
385
380
379
367
352
344
346
350
344
333
328
335
345
344
335
331
337
347
346
338
335
343
353
351
339
335
344
356
355
342
336
345
356
356
349
346
353
364
364
355
352
361
370
364
348
336
340
350
348
340
336
346
356
352
339
335
344
359
361
360
378
413
454
472
447
387
331
283
225
161
148
203
282
341
360
360
365
372
369
361
358
368
380
380
370
366
377
389
388
378
374
384
398
397
386
383
393
406
404
395
395
408
425
427
419
420
434
453
458
453
452
463
476
474
463
456
460
465
456
437
420
415
413
397
375
359
356
360
352
336
326
329
338
336
326
320
326
336
337
331
325
328
337
338
332
327
332
340
341
336
333
336
345
347
341
336
339
344
344
341
339
337
339
332
316
301
295
297
295
290
287
288
293
294
289
284
285
295
305
307
316
350
393
431
439
403
348
300
244
171
120
144
221
292
330
348
374
397
387
361
337
328
336
340
334
334
344
357
357
348
344
352
364
364
356
354
363
375
374
367
365
373
387
390
387
387
400
415
413
408
411
422
432
433
423
416
414
412
402
392
384
382
379
360
336
315
312
314
307
291
278
281
297
299
285
275
284
296
301
296
291
297
309
312
301
291
295
309
316
309
295
299
310
314
306
303
315
323
319
313
314
325
336
328
314
310
309
314
314
305
304
316
333
331
314
310
320
336
337
337
346
375
403
419
409
380
350
320
276
214
187
215
270
310
323
329
332
336
338
327
323
333
345
347
337
334
339
350
351
344
338
342
354
354
345
343
350
362
363
356
358
376
396
402
393
389
404
422
425
418
413
418
435
437
429
423
433
446
442
428
415
411
414
405
389
380
382
390
382
364
351
354
364
359
343
338
351
365
362
344
340
354
372
371
357
353
365
378
376
364
360
366
376
376
364
352
356
366
369
359
349
349
352
348
337
322
316
322
324
318
316
333
349
341
317
308
318
337
347
334
339
367
406
431
427
399
364
330
280
202
168
198
266
314
322
313
312
323
321
308
298
305
325
335
325
317
321
332
334
325
321
325
335
343
336
326
331
347
353
348
345
347
360
361
349
346
360
379
382
375
371
377
398
406
397
393
396
404
397
374
358
373
411
411
368
318
306
321
328
317
306
303
310
302
286
290
304
310
291
269
266
286
304
304
298
292
297
307
309
301
294
297
307
314
303
291
295
303
301
296
285
282
285
279
267
257
250
262
281
276
267
263
268
263
260
274
292
321
342
364
386
403
395
377
331
248
149
115
148
208
256
289
311
318
308
292
289
295
293
280
278
298
319
323
311
301
312
336
350
353
356
373
386
386
377
370
380
400
406
399
397
404
422
424
413
414
432
454
453
436
431
451
471
466
438
406
381
383
385
374
362
351
352
348
325
307
311
323
322
298
274
273
283
288
288
282
286
298
304
300
294
288
294
296
287
288
304
313
324
321
316
319
320
295
266
274
303
314
303
292
303
328
349
347
314
272
266
279
280
278
284
290
304
325
353
373
358
318
279
253
247
225
204
240
310
355
384
410
408
387
384
382
395
404
383
375
382
393
385
368
347
339
338
344
346
347
336
339
340
330
320
323
331
332
324
301
302
318
325
297
279
315
376
400
408
416
413
419
410
403
400
395
407
390
351
330
340
371
380
352
319
316
334
346
336
328
334
351
379
407
395
384
390
371
351
342
332
330
327
324
321
327
342
361
354
345
362
388
388
371
356
367
382
372
325
272
243
249
249
246
247
267
269
275
275
286
298
331
365
367
372
374
357
314
263
222
181
171
201
257
317
354
387
384
355
347
361
376
347
313
314
325
354
383
377
362
372
386
379
360
329
331
362
391
389
372
364
382
394
376
347
332
344
355
328
303
335
381
391
366
344
350
384
399
381
370
371
378
375
356
324
320
346
355
339
298
268
291
318
290
267
263
307
365
379
343
319
323
323
318
330
339
354
366
361
352
352
348
352
346
333
328
329
306
267
241
241
252
265
271
259
261
273
284
276
269
275
297
310
297
288
306
341
367
354
289
241
230
190
122
110
175
274
350
376
372
389
423
457
439
418
404
408
402
390
379
371
374
394
383
385
395
401
407
382
376
416
452
437
413
407
437
470
473
442
397
372
379
388
389
372
352
350
368
382
388
389
378
322
242
192
219
293
313
253
164
146
217
289
341
353
316
259
199
163
170
222
277
280
255
247
251
265
287
294
286
300
308
309
304
316
342
375
399
398
387
396
399
410
409
408
434
473
498
499
508
551
599
623
568
515
479
495
520
532
548
542
519
462
374
305
261
249
270
300
324
324
318
302
301
303
324
334
337
311
292
300
307
315
317
278
252
259
281
294
286
266
268
297
311
301
278
270
275
285
283
286
316
336
332
317
316
330
337
333
334
340
360
382
384
400
385
349
349
364
384
414
414
389
339
298
328
378
383
346
334
356
401
405
367
360
377
385
349
278
244
278
336
377
357
303
287
325
362
348
327
321
318
335
345
330
304
305
320
339
322
307
315
321
317
324
338
348
344
327
312
301
300
284
250
206
173
170
194
229
248
274
309
321
302
287
297
324
343
342
349
364
373
371
386
418
439
483
506
459
395
342
336
359
388
422
480
534
536
518
493
480
484
485
470
440
420
426
451
465
457
447
431
415
389
377
387
417
447
453
440
411
391
384
396
400
385
383
397
402
395
388
395
409
398
373
378
395
408
396
378
371
377
409
435
438
450
474
470
435
424
437
465
459
410
349
339
403
507
573
558
493
446
419
376
336
342
385
415
418
374
294
233
209
198
182
197
259
317
347
345
341
339
348
338
321
325
347
356
336
315
301
303
316
320
323
319
317
320
324
317
309
319
338
346
343
346
360
368
368
365
369
388
401
409
407
418
434
440
426
401
403
420
436
426
379
365
402
441
416
339
300
329
410
470
498
517
545
567
556
507
457
433
427
428
409
404
408
397
375
341
351
380
397
396
392
372
358
344
327
322
332
341
346
347
333
317
318
322
318
312
311
322
335
335
353
394
430
440
393
306
220
157
114
133
208
317
415
431
398
350
319
335
365
363
335
335
362
376
362
345
348
363
380
372
345
319
305
308
309
307
313
338
353
352
339
334
342
350
348
347
350
342
332
306
291
303
315
311
300
304
319
334
343
339
335
334
345
354
354
349
377
428
467
462
427
410
428
431
421
399
373
401
442
418
360
312
309
322
320
305
287
288
305
310
304
312
333
350
352
344
341
350
355
333
293
266
266
275
261
244
261
295
332
342
327
306
287
249
175
119
131
199
264
281
268
251
246
250
255
246
234
244
260
267
266
270
279
287
288
283
280
299
327
323
307
288
304
334
330
318
321
334
355
354
335
327
345
370
370
354
356
383
404
397
371
355
358
371
375
367
361
366
387
378
357
335
338
329
317
308
325
343
352
348
324
299
302
312
329
343
349
358
365
345
329
333
346
365
361
331
311
319
336
339
329
313
314
324
311
286
276
296
322
320
295
284
316
355
367
336
276
225
198
153
99
104
166
259
307
299
295
312
333
326
296
292
321
354
349
321
310
332
367
365
340
333
356
382
377
357
351
374
406
408
393
389
405
433
439
425
419
439
469
478
470
460
473
496
506
494
478
481
491
497
500
499
502
503
492
471
455
453
462
461
446
420
411
410
410
399
383
368
360
364
352
332
322
326
325
309
293
285
290
295
285
274
289
311
323
319
308
309
328
330
306
288
297
321
331
327
328
354
385
368
299
235
185
126
57
48
107
199
266
280
256
232
236
249
247
229
211
205
213
212
204
205
220
243
253
247
247
260
276
284
275
271
280
301
323
340
360
389
422
432
429
433
458
486
486
461
446
457
483
491
477
462
473
492
492
471
449
443
442
442
432
417
423
435
444
440
436
442
458
468
464
462
467
479
487
484
481
480
490
499
497
490
488
488
488
483
477
490
506
506
488
472
468
464
467
466
451
436
433
423
420
435
449
441
429
385
285
192
197
260
314
351
368
368
352
326
300
279
275
296
304
259
174
144
170
212
229
263
331
393
404
389
380
375
365
347
333
341
356
360
347
344
351
358
342
317
328
358
378
382
370
356
354
372
376
359
345
341
340
326
302
286
284
285
281
271
275
291
309
315
311
312
329
345
347
349
352
360
370
379
387
384
383
389
380
373
358
361
386
399
380
369
380
387
389
384
374
380
390
390
377
370
390
429
458
454
442
404
316
192
133
158
219
278
300
284
260
260
274
285
276
262
263
285
290
270
255
256
270
280
274
261
267
280
281
270
265
268
280
276
259
253
252
257
263
269
283
307
340
356
335
307
306
326
335
313
307
326
353
360
336
309
306
320
319
302
295
311
344
353
332
316
331
358
362
340
325
337
366
374
365
363
378
389
377
325
303
321
362
377
363
348
352
377
400
407
405
415
445
466
473
464
457
466
473
476
474
464
454
436
366
247
175
200
265
295
298
289
291
294
283
266
269
291
292
282
277
286
304
309
290
267
269
289
297
282
259
267
295
312
304
285
283
294
298
286
280
290
312
325
317
304
307
320
323
305
290
288
294
281
241
206
198
217
224
195
181
205
241
263
255
235
230
256
270
260
244
253
277
294
296
287
292
312
321
308
285
280
290
304
285
270
278
313
333
330
319
325
343
344
329
323
336
361
381
397
415
434
434
392
348
313
286
232
224
276
350
423
466
470
466
470
464
465
457
441
417
398
394
390
378
362
358
364
360
344
324
321
326
329
329
318
318
326
331
315
293
289
311
333
344
329
329
356
382
372
351
344
351
351
326
305
319
348
349
321
296
286
294
295
281
269
269
284
291
279
258
249
256
256
230
199
199
236
256
245
219
225
267
297
296
292
293
306
308
283
254
262
298
320
287
250
262
298
313
311
315
352
400
396
316
248
207
182
159
172
220
292
349
367
355
321
288
293
311
334
358
379
391
405
423
433
440
473
502
497
471
455
452
463
436
393
370
358
365
358
342
332
337
352
349
327
327
348
365
369
344
338
360
373
360
339
326
326
327
310
286
285
303
326
319
302
302
317
329
324
309
290
294
305
311
308
305
322
337
335
316
315
330
334
312
289
289
312
320
299
277
286
317
328
309
295
307
343
363
356
356
383
415
394
295
185
125
112
115
128
170
242
320
354
331
291
287
331
370
374
364
366
386
401
387
368
365
384
396
377
361
378
415
446
457
452
456
480
506
523
535
524
514
525
506
457
420
410
418
416
399
382
391
399
389
382
392
397
396
387
373
363
370
374
366
344
328
338
347
334
311
299
325
359
371
368
366
375
378
352
322
316
337
347
323
292
289
316
331
315
298
309
328
340
327
305
299
325
335
332
324
322
331
329
272
187
130
118
133
170
224
276
320
344
334
323
319
333
352
354
347
342
358
370
356
347
358
378
397
399
386
375
379
392
399
404
407
412
419
424
432
443
458
473
475
451
441
453
468
474
456
445
457
471
471
464
461
459
452
436
421
406
396
395
364
321
312
330
346
334
311
307
331
354
352
332
321
326
341
339
320
303
304
305
290
281
282
291
306
304
286
275
280
286
277
259
264
283
305
306
287
291
319
310
249
187
141
102
102
137
187
243
303
352
360
328
305
290
283
281
274
293
327
337
318
294
292
325
342
321
294
293
319
340
338
341
363
386
409
410
394
400
429
450
452
447
446
460
483
475
462
463
479
508
510
490
501
521
531
512
472
442
428
424
405
369
341
325
325
311
280
265
276
287
284
275
272
273
275
266
257
257
265
260
247
235
232
248
273
277
265
256
255
254
245
231
232
250
276
282
289
312
339
333
289
218
150
101
122
170
219
259
299
324
310
281
273
298
330
337
330
324
337
350
328
288
273
299
327
318
299
291
314
333
322
305
307
343
369
357
330
336
372
410
424
410
421
457
479
475
457
459
476
491
490
477
476
480
486
487
471
462
460
455
429
411
413
428
420
399
389
381
368
366
374
360
325
305
321
337
344
335
328
339
332
324
317
325
338
338
318
302
321
348
339
299
282
300
330
356
370
362
358
309
198
106
112
191
262
286
287
286
302
324
317
285
270
292
313
283
243
239
266
293
285
269
267
289
323
323
305
307
329
342
339
308
296
316
338
331
309
300
321
359
365
345
333
346
370
375
354
351
376
397
383
357
349
370
390
384
369
362
372
391
394
382
394
417
437
438
435
453
473
470
468
471
484
495
478
450
423
388
356
338
322
299
281
284
290
297
302
296
308
317
311
308
330
403
492
523
484
399
294
183
145
173
225
270
313
325
307
288
289
300
301
292
298
311
330
326
298
291
299
311
301
255
217
214
230
243
234
235
259
296
318
316
335
383
420
420
401
394
420
452
465
452
440
464
486
476
452
435
445
464
450
414
403
417
437
419
388
382
400
426
423
403
380
380
403
425
423
409
415
426
396
312
265
297
364
399
397
385
386
408
429
422
386
352
340
329
308
275
258
266
291
325
361
382
378
367
305
184
96
122
193
247
277
292
299
303
305
304
314
333
329
310
294
295
322
324
306
289
298
326
333
318
303
313
339
345
332
323
335
350
347
324
317
336
364
379
375
360
375
392
402
400
388
398
420
431
427
415
406
414
421
403
385
373
373
365
340
329
342
363
367
343
317
316
334
328
299
296
304
320
319
304
308
328
339
329
307
293
303
332
340
278
226
235
285
295
287
290
313
375
407
365
309
283
249
164
122
126
156
213
279
322
346
353
353
342
314
295
290
301
316
323
317
321
337
348
336
317
309
319
331
322
313
327
351
363
362
350
362
387
385
353
326
316
322
336
334
338
367
399
404
391
393
410
439
454
450
449
450
459
460
440
421
429
454
448
418
402
404
419
431
426
412
410
418
415
381
364
381
412
423
400
375
380
396
405
394
383
380
355
356
387
409
420
422
409
367
352
372
370
336
306
279
222
166
161
203
260
312
330
327
321
317
332
360
366
352
339
334
341
343
321
302
304
316
327
321
308
309
330
342
333
315
311
323
332
329
323
335
361
373
365
355
364
390
402
386
368
365
377
387
373
353
357
383
406
414
402
408
421
408
371
332
317
321
327
325
315
318
338
336
311
304
323
347
348
323
308
314
349
372
352
313
305
323
333
325
316
317
326
338
335
321
322
347
366
355
340
329
314
303
287
249
194
196
251
312
342
345
346
337
327
329
340
348
354
346
329
323
326
320
307
297
306
328
338
315
296
325
368
374
354
336
338
358
372
360
347
352
363
368
359
354
366
390
392
388
391
395
408
413
392
384
397
409
410
392
357
338
335
313
275
251
266
296
304
298
293
311
345
364
349
330
339
366
369
345
320
317
340
345
330
316
326
350
362
353
338
341
371
402
392
337
318
335
370
405
426
443
449
439
403
289
184
172
231
276
294
297
302
306
306
310
317
328
336
340
336
322
326
331
318
301
301
317
321
307
292
297
324
341
335
328
327
348
369
367
355
359
374
380
361
339
353
399
426
416
385
372
395
426
416
385
361
364
368
346
324
308
319
322
299
278
282
305
328
321
313
319
339
355
344
320
319
337
353
336
309
306
324
335
327
314
324
360
384
371
340
338
374
398
385
384
408
456
505
517
488
468
486
453
314
193
180
233
293
329
326
308
297
304
303
308
326
348
365
366
357
357
374
383
372
354
349
367
389
392
377
373
395
408
398
378
376
401
414
412
399
393
400
416
406
387
381
399
420
422
404
394
404
400
384
359
354
367
372
354
332
328
344
349
332
307
298
316
331
318
302
301
325
347
332
311
317
352
381
380
360
357
372
387
379
364
362
344
327
336
364
380
396
417
423
424
433
446
457
438
387
343
318
273
199
163
193
254
312
335
315
286
270
270
272
276
282
294
307
312
309
301
306
325
335
329
321
286
265
274
302
318
323
329
337
330
323
326
342
357
363
365
370
378
384
377
365
370
384
391
380
364
372
384
383
358
347
359
363
347
326
326
330
341
331
314
305
307
319
318
307
294
294
300
303
293
261
223
235
264
254
238
236
271
307
325
328
336
355
374
391
404
415
434
449
454
469
494
527
538
507
440
382
354
311
266
272
321
386
427
423
398
374
370
360
354
369
380
372
343
310
285
284
305
318
329
337
346
359
369
364
353
350
357
312
251
237
266
301
302
285
285
308
342
353
345
335
345
364
369
362
356
362
377
384
370
367
369
374
374
354
341
342
367
357
318
311
330
361
385
404
410
391
335
263
228
242
274
295
293
281
269
273
301
309
280
254
254
277
300
312
324
342
373
410
424
432
456
492
516
503
461
392
331
284
224
185
222
297
357
386
380
362
352
354
343
314
306
325
328
315
305
315
325
324
313
308
326
352
360
354
353
366
382
379
361
350
365
386
388
376
373
389
411
405
381
369
383
404
397
380
369
376
391
384
365
347
347
353
347
325
309
315
322
312
287
269
290
319
327
324
323
352
383
374
342
310
311
305
272
237
220
235
268
266
248
255
276
292
293
284
291
324
363
384
381
378
388
416
440
452
473
494
479
431
370
307
242
237
283
351
394
422
455
479
468
438
427
441
449
439
440
434
412
382
344
308
304
300
303
309
305
301
310
320
316
319
329
343
354
353
351
353
361
364
365
365
362
370
373
367
357
358
368
357
336
334
350
360
348
320
295
290
297
291
273
260
264
273
264
254
260
273
287
273
243
240
277
326
344
311
274
274
283
291
292
290
292
304
300
276
263
273
291
290
276
263
269
299
310
306
313
338
366
335
250
175
128
100
69
72
128
205
260
279
266
263
283
307
312
299
285
299
313
314
308
288
274
266
253
244
263
285
290
291
291
278
281
291
299
310
322
339
356
362
352
346
352
373
372
350
339
346
359
360
346
344
359
375
376
355
339
342
350
336
303
289
298
307
297
280
275
291
310
319
307
301
317
342
350
347
347
355
358
347
337
325
323
333
332
320
317
315
320
332
329
323
338
359
361
344
334
355
389
400
377
330
268
218
176
121
94
145
233
310
345
357
368
380
381
360
338
340
364
377
373
377
383
386
385
375
367
371
379
371
358
351
346
347
350
325
297
292
304
319
316
303
305
325
341
346
344
355
377
393
393
395
408
428
430
407
386
375
372
359
331
309
309
327
329
317
309
312
325
319
296
280
287
304
300
290
293
306
308
303
290
286
298
309
308
299
293
294
316
319
307
288
281
303
318
298
281
301
350
384
390
375
354
322
264
195
139
142
198
265
308
338
367
388
389
381
374
385
409
421
421
423
413
421
435
437
433
421
422
427
420
421
424
431
437
421
403
403
412
416
418
413
413
423
431
435
436
441
455
457
452
449
455
463
462
445
428
421
421
420
407
402
411
420
405
371
353
346
345
345
335
331
336
349
351
344
340
348
356
352
333
335
351
357
339
313
301
317
340
346
336
331
341
366
387
378
360
359
384
408
410
397
370
334
289
230
189
192
242
296
337
369
393
405
398
376
365
374
389
390
375
367
379
409
423
424
427
432
441
444
431
421
425
431
435
423
402
402
430
450
442
437
446
465
485
488
479
482
496
504
488
464
461
476
484
472
455
448
452
451
443
434
433
440
441
421
396
398
406
387
360
341
350
366
369
344
315
311
325
328
303
287
291
308
315
302
283
279
290
296
282
265
273
285
283
279
281
289
307
328
328
308
276
238
210
177
140
115
142
201
252
281
305
324
333
327
323
336
351
346
323
302
304
341
361
332
306
320
342
344
330
319
331
338
338
330
328
338
352
364
359
361
390
442
479
501
543
586
623
643
629
601
597
629
651
620
571
541
541
528
511
475
433
425
421
405
377
355
358
362
347
329
320
334
343
331
318
298
287
289
281
263
260
259
245
226
198
197
227
242
220
206
213
232
245
239
225
220
235
258
262
247
232
221
193
156
124
100
124
175
203
222
245
267
274
265
261
266
288
306
294
277
282
303
314
309
286
276
301
334
341
340
351
371
413
447
442
413
394
400
398
390
391
401
420
434
438
423
422
438
430
426
435
454
450
413
374
351
350
355
347
316
294
298
305
311
303
292
261
230
226
256
298
318
299
261
222
224
265
341
419
426
340
230
168
156
178
218
248
269
280
286
288
300
306
305
302
300
325
350
345
320
295
276
269
251
237
252
299
347
362
344
321
316
321
324
332
345
352
352
343
339
344
354
364
361
351
351
356
365
362
349
348
365
372
366
357
340
341
358
356
343
341
343
355
359
355
362
368
375
384
375
372
390
397
383
368
354
342
357
354
329
311
328
349
356
354
352
365
376
380
365
358
373
401
438
460
454
454
433
425
398
386
392
392
376
375
371
383
387
366
340
317
308
315
304
307
309
310
290
245
204
176
184
208
204
221
272
337
380
400
383
342
339
334
355
370
360
370
373
352
334
336
351
368
378
369
350
348
363
365
362
362
364
372
372
371
374
398
420
428
434
440
458
473
473
452
438
440
446
437
420
409
418
431
424
410
407
412
420
404
399
408
432
457
451
421
419
446
459
418
371
370
416
430
435
421
394
375
396
406
378
340
337
370
397
393
373
376
396
392
366
332
338
355
353
346
344
319
273
227
212
238
266
285
293
266
232
256
327
382
393
393
388
386
371
354
366
383
391
368
328
310
324
335
322
308
306
327
336
315
289
281
335
409
413
360
309
287
297
310
321
326
345
366
363
350
344
359
377
379
354
333
336
342
332
324
315
327
337
319
303
307
330
344
329
301
298
320
343
333
316
319
336
352
365
369
386
433
483
496
478
478
492
506
494
476
476
497
522
518
481
457
457
463
441
404
360
325
293
263
226
208
230
267
291
291
303
328
350
341
320
298
296
313
314
301
301
317
333
328
300
294
308
320
321
320
318
322
326
324
310
302
315
335
328
309
305
318
327
322
303
299
321
342
333
319
318
341
366
369
352
346
364
382
374
348
333
336
343
337
316
302
306
320
317
298
295
311
348
338
309
312
337
366
363
343
328
345
357
337
306
298
315
329
311
289
280
292
305
298
279
273
284
318
330
310
267
216
184
139
137
178
240
297
316
291
272
269
275
273
258
248
260
276
269
250
248
276
310
306
282
279
303
326
334
302
269
287
359
419
420
364
302
270
247
235
251
286
324
334
328
313
317
334
335
316
314
326
345
347
329
317
322
337
329
310
303
317
333
331
312
303
306
316
317
311
310
319
329
325
310
300
304
327
337
332
331
338
351
364
354
338
336
349
352
340
331
330
338
346
357
353
364
377
370
332
287
261
255
284
328
386
424
431
429
425
396
385
403
397
374
355
354
370
369
358
359
363
373
362
335
318
324
338
347
339
338
351
356
355
356
361
379
387
365
358
375
385
390
402
407
399
390
394
403
391
376
382
409
417
386
367
372
381
381
369
357
361
376
374
355
347
360
374
383
376
375
384
397
394
383
375
373
387
392
381
363
367
369
363
356
358
359
371
380
378
367
358
373
378
369
344
323
305
247
201
180
209
267
308
326
332
355
377
385
374
350
337
337
327
311
300
304
318
316
303
310
348
383
361
299
271
286
313
326
327
320
315
346
359
356
348
351
371
394
399
395
380
368
365
366
367
369
363
352
337
330
338
355
357
345
334
341
352
358
345
330
334
356
358
340
328
329
344
350
332
321
337
371
391
385
360
336
331
325
303
277
254
246
264
297
337
372
388
373
335
310
316
352
367
334
290
261
247
208
183
200
245
303
345
339
308
296
304
307
301
289
290
284
283
280
276
301
323
325
329
345
363
369
355
333
324
329
341
343
337
339
344
357
370
378
389
398
410
411
393
376
385
416
441
449
454
464
480
501
514
531
554
574
584
564
528
520
519
513
505
499
507
535
559
561
559
572
605
625
610
584
577
600
605
577
542
530
545
547
519
492
495
507
507
483
464
467
474
469
456
459
476
483
455
399
353
322
293
295
319
350
389
415
420
406
394
400
402
395
389
372
375
395
410
397
360
363
386
399
397
374
368
377
385
378
372
379
395
402
377
347
331
341
364
363
346
338
334
331
319
314
312
313
316
310
298
295
295
299
294
288
282
284
284
274
266
262
263
264
260
249
252
260
266
265
253
250
260
264
247
228
228
232
225
210
207
226
247
250
231
216
220
234
244
239
223
227
245
257
235
210
183
162
133
79
49
76
143
191
198
195
208
230
242
229
218
236
260
265
251
244
257
283
293
273
251
250
272
272
244
230
241
262
273
255
254
280
326
339
324
306
316
349
354
316
289
305
337
336
309
287
288
308
314
295
281
287
306
301
270
257
273
302
313
297
290
293
308
320
322
301
278
296
324
324
331
337
347
348
330
323
333
342
344
340
336
348
364
382
383
375
370
386
402
409
413
421
440
437
397
352
337
321
301
314
352
402
462
487
471
444
442
456
460
441
413
402
398
399
385
362
358
370
364
334
311
308
321
327
309
285
281
294
304
294
277
275
291
297
277
265
277
300
305
292
280
278
290
303
297
277
274
288
289
275
255
256
260
259
245
237
244
262
278
275
256
250
268
281
274
260
255
259
270
262
241
238
252
253
231
205
195
208
220
210
193
202
228
246
229
205
204
238
265
250
231
216
188
156
119
104
101
122
180
230
260
284
309
319
297
278
291
333
362
352
337
346
384
387
343
319
332
359
366
346
330
342
369
379
354
335
341
361
368
341
306
308
323
345
386
401
411
439
482
503
503
509
511
517
520
509
507
506
499
486
475
468
458
446
425
403
403
411
403
386
367
363
371
373
363
348
342
345
346
337
317
301
304
310
300
286
285
300
316
316
303
296
312
332
332
317
315
337
356
363
348
320
298
277
253
206
185
228
297
347
363
366
374
384
383
373
372
371
383
388
386
385
390
403
404
404
405
397
395
395
395
396
404
414
412
406
398
400
414
420
421
417
420
429
432
422
409
407
420
422
407
395
396
398
383
356
335
330
332
318
293
280
284
285
274
259
258
277
296
290
274
272
293
311
306
289
284
302
316
304
283
282
301
309
292
274
281
306
321
309
284
276
296
319
314
304
304
309
309
288
267
272
290
294
240
181
183
238
294
304
292
287
306
319
302
278
279
302
324
325
325
338
355
367
365
360
360
371
381
386
385
385
395
402
398
394
393
405
412
405
400
399
405
409
411
410
417
442
465
470
456
437
433
432
431
424
408
400
401
379
354
345
348
354
346
335
323
326
330
321
313
313
325
336
330
321
319
324
322
308
291
280
286
294
294
297
291
301
313
315
308
282
268
272
274
273
274
295
308
297
267
217
177
158
150
142
146
195
259
298
309
311
324
331
324
309
302
309
326
324
302
299
320
333
327
304
297
322
345
341
328
333
364
391
380
354
354
383
409
409
388
377
391
406
400
380
378
399
421
409
383
376
404
425
412
391
385
392
410
401
392
402
420
439
432
412
400
415
442
440
415
409
426
429
429
416
399
394
407
402
391
381
391
414
392
343
330
350
370
343
310
304
335
353
334
304
308
341
370
360
342
356
372
359
315
263
233
225
249
274
298
326
359
369
346
319
321
350
369
347
311
307
339
357
345
322
326
345
366
359
331
326
340
355
344
341
344
361
373
367
356
364
383
394
392
379
373
391
409
415
407
402
409
417
407
386
387
399
411
384
342
327
348
364
335
297
287
310
327
307
274
262
280
308
303
278
272
290
308
299
279
274
303
327
319
299
291
310
321
310
292
287
299
314
306
284
276
290
311
315
297
291
318
346
354
330
291
256
234
202
162
146
188
247
283
296
299
304
303
291
284
281
281
291
296
292
294
306
320
317
303
296
313
336
344
340
341
356
370
371
370
374
393
412
409
393
384
392
414
414
391
377
381
386
382
367
364
375
379
358
327
314
324
336
321
301
299
316
329
326
309
301
318
336
340
329
332
342
358
357
345
345
367
383
372
358
347
370
403
411
397
388
387
394
388
376
370
382
395
399
392
386
390
400
414
410
415
440
452
453
431
388
355
337
309
268
271
331
395
423
421
407
405
409
399
368
344
339
343
333
317
307
312
326
334
331
328
330
330
327
315
312
331
345
343
330
329
341
372
383
366
356
370
393
411
400
389
393
408
407
392
388
407
427
422
397
375
369
376
379
367
349
348
356
354
342
333
338
351
349
332
319
320
325
314
293
281
278
290
283
251
232
235
253
265
255
239
239
255
259
241
232
241
259
259
249
248
272
301
302
298
309
333
356
326
257
214
213
218
184
168
204
275
330
336
318
310
327
346
341
315
303
320
344
344
326
312
326
343
340
325
323
340
364
366
347
339
347
372
381
372
366
378
405
417
409
408
419
442
447
432
420
433
453
454
437
422
423
439
440
418
393
390
397
397
384
371
376
388
388
377
361
353
374
399
391
373
371
382
395
396
396
396
403
404
384
375
377
391
392
381
370
361
385
413
404
392
384
388
384
356
344
353
352
358
349
352
390
426
414
373
334
300
274
276
296
320
352
387
394
366
339
345
363
360
340
326
336
363
370
349
333
336
350
356
343
331
334
343
336
318
309
325
355
368
357
348
351
359
346
310
286
296
322
329
306
296
312
336
341
318
302
310
325
323
296
283
294
311
308
292
290
312
341
349
337
323
334
351
340
319
313
340
373
376
357
336
337
348
354
349
334
339
361
375
357
341
343
354
361
355
345
347
364
372
367
355
355
382
396
389
379
367
356
334
296
249
208
224
282
327
344
359
375
373
352
335
338
360
368
355
340
346
366
373
361
350
359
379
390
374
360
366
384
391
380
372
385
413
420
411
398
402
420
430
418
406
410
424
430
425
416
418
433
437
421
402
396
405
402
382
365
362
372
374
355
338
337
347
351
339
324
330
347
354
344
336
338
349
353
346
335
332
346
356
347
329
327
341
349
332
316
322
340
344
329
316
321
342
346
331
330
352
383
393
364
322
296
275
235
174
168
226
302
345
348
338
338
349
355
345
334
336
351
360
353
345
348
357
360
351
347
349
363
374
362
352
354
374
391
384
371
375
394
405
397
390
396
413
416
405
394
400
417
423
407
393
396
410
411
391
369
367
379
383
365
344
342
357
364
354
338
337
347
350
332
316
317
335
339
327
315
321
337
339
326
313
316
329
330
310
295
303
320
319
307
300
305
320
325
310
297
302
322
348
354
356
359
359
338
297
247
189
174
199
240
282
317
342
347
332
318
322
342
351
350
345
349
363
370
359
350
356
373
385
378
364
367
383
395
395
386
382
398
412
414
404
401
412
425
422
410
408
419
426
413
401
407
418
420
403
383
382
389
390
375
355
352
363
362
346
331
327
336
343
336
322
313
318
321
313
314
325
345
352
341
328
330
342
347
331
312
305
314
318
309
298
297
310
316
307
296
295
305
309
305
303
313
337
362
356
314
267
237
221
174
125
136
207
282
314
307
293
298
308
309
299
297
308
317
313
302
303
318
331
321
305
303
318
332
324
312
313
334
345
339
326
329
347
361
360
349
344
358
372
370
356
350
360
369
361
349
345
351
351
335
319
313
318
321
307
288
280
289
295
290
279
276
281
288
282
267
268
280
292
286
273
272
289
303
298
284
276
280
286
279
264
257
266
277
274
264
265
274
283
280
267
265
279
302
317
321
334
341
314
261
207
181
149
122
139
198
269
315
325
306
286
287
304
322
317
306
303
313
328
328
322
321
325
338
339
328
332
347
360
359
350
348
365
383
384
379
379
388
400
401
394
397
407
414
401
386
386
399
412
401
380
374
379
384
366
343
335
344
349
343
331
321
323
337
332
315
310
321
330
325
317
317
328
336
329
320
323
342
351
344
332
325
331
338
330
320
317
328
342
340
330
326
336
347
346
337
339
363
388
401
395
372
345
315
280
226
179
190
252
317
353
358
359
364
355
343
339
350
363
362
351
347
357
371
368
357
355
363
372
373
367
364
374
387
389
380
376
389
408
409
396
392
407
423
419
405
399
410
417
411
395
389
397
406
398
384
369
367
369
367
357
343
342
343
342
333
321
328
341
336
319
312
323
335
335
323
316
327
345
343
331
323
328
339
334
313
305
320
324
315
301
304
314
323
316
306
306
319
334
331
330
337
357
378
359
309
273
264
247
201
183
220
289
342
355
338
326
334
354
345
318
310
338
367
372
358
342
347
367
378
364
358
368
387
397
394
393
405
423
431
425
421
437
446
439
436
441
456
463
455
438
432
442
446
439
422
410
413
422
422
397
379
384
401
396
379
360
361
373
365
346
336
344
349
342
330
325
329
334
333
320
313
325
332
326
314
303
308
316
313
300
293
293
303
302
296
293
300
310
308
301
300
307
330
342
340
331
312
283
254
229
210
192
206
239
277
306
326
338
333
322
318
321
328
326
322
318
322
334
336
326
324
332
345
348
340
336
335
351
356
346
337
346
361
359
349
348
361
381
378
363
358
365
378
371
355
349
355
362
360
340
325
334
347
344
326
314
321
333
329
319
310
313
324
321
314
309
312
319
316
303
302
320
340
337
317
306
313
322
323
305
297
304
316
313
301
293
304
318
315
301
302
316
329
336
331
334
340
335
312
274
233
215
210
217
247
281
313
336
337
324
315
325
344
341
332
329
343
361
361
341
324
330
352
361
349
337
341
357
360
352
350
363
378
380
371
363
372
392
398
383
377
382
394
390
369
356
358
373
375
358
343
352
360
353
346
343
353
370
365
356
351
354
360
366
361
354
361
369
365
355
354
364
370
365
348
342
346
355
355
346
336
345
368
375
354
328
318
325
330
327
323
329
347
366
375
379
373
348
292
226
184
189
235
279
300
311
335
360
365
351
343
349
364
371
370
365
372
394
403
391
383
391
407
409
398
387
392
404
406
397
390
393
403
401
388
382
388
402
404
392
378
380
399
402
384
367
369
377
370
353
339
340
351
344
327
315
319
330
328
313
302
309
323
321
307
300
311
328
332
317
303
302
308
308
298
287
291
302
303
292
284
290
306
308
296
287
294
309
318
307
297
317
350
367
357
331
301
263
215
161
148
191
259
302
309
311
326
344
345
331
324
332
352
358
345
336
343
361
369
358
351
357
371
378
370
364
373
395
406
399
393
403
422
429
414
407
412
424
419
400
384
390
405
406
385
367
370
382
379
357
338
335
349
351
332
316
317
325
319
301
286
294
316
324
310
296
299
314
321
308
291
289
299
303
295
287
291
301
300
287
284
297
314
318
300
286
290
309
319
306
295
312
341
358
343
307
277
254
231
195
176
198
255
299
312
312
319
332
335
324
317
321
333
337
328
319
323
338
344
332
324
334
353
362
351
340
344
362
371
363
356
363
382
391
382
371
374
388
392
382
372
376
387
387
375
364
365
374
372
355
339
337
347
350
336
321
322
336
341
329
317
317
332
339
330
320
323
335
339
331
323
329
343
345
332
321
323
333
335
322
312
314
327
330
317
306
307
320
325
318
312
319
343
362
361
349
330
305
274
242
223
206
216
253
287
311
328
345
350
338
329
331
347
358
351
342
348
366
376
367
356
359
374
381
372
360
362
379
385
377
369
374
392
401
395
388
391
403
408
397
386
388
400
403
392
379
377
387
390
378
361
357
366
370
360
347
344
356
359
348
335
333
344
349
339
327
326
339
347
340
328
330
343
350
345
338
337
345
352
346
336
334
343
346
335
324
326
339
346
335
325
329
342
350
346
340
348
371
386
381
353
313
286
271
257
225
207
242
301
343
356
358
364
369
362
353
355
368
376
371
361
361
371
380
375
365
365
377
384
379
372
375
391
402
398
393
399
414
422
415
408
415
432
441
429
415
415
426
429
417
404
402
410
411
394
376
371
377
377
367
354
347
354
359
350
338
337
345
350
342
328
327
340
346
336
324
323
337
346
340
329
327
339
346
338
327
327
337
342
332
318
314
320
327
321
312
313
324
331
323
314
315
332
347
355
356
362
370
349
294
243
223
232
213
193
214
269
328
357
352
336
331
342
352
348
337
336
350
362
358
346
343
355
367
363
352
351
364
374
371
364
366
377
389
387
379
381
397
408
403
393
391
398
405
398
386
382
389
395
387
370
361
366
369
356
338
331
336
340
330
318
312
319
325
317
305
302
311
319
313
300
298
310
316
308
298
297
307
316
310
300
299
312
323
321
310
308
319
329
325
315
311
314
315
308
297
296
308
318
315
304
301
309
320
324
325
336
362
380
377
341
284
243
218
203
162
152
201
274
321
335
333
337
344
339
331
331
340
351
350
339
336
347
356
352
343
342
353
363
359
351
352
362
375
375
369
370
382
394
394
389
388
397
408
404
393
389
396
404
397
383
377
383
386
375
358
347
348
350
340
325
318
322
327
320
306
300
306
315
310
298
293
300
306
301
290
287
297
305
301
289
286
