0
338
338
338
338
338
337
337
337
337
335
336
336
336
337
336
336
337
337
338
339
338
338
339
338
339
339
338
338
338
337
337
337
337
337
338
338
338
338
339
339
339
339
339
339
338
339
339
338
337
339
339
337
337
337
338
338
338
338
338
339
339
339
339
339
339
340
338
338
338
337
337
338
338
338
339
339
339
339
339
340
340
340
340
339
339
339
339
339
338
338
338
338
338
338
338
339
339
340
340
340
340
341
340
340
340
339
338
337
338
337
336
337
337
338
338
338
339
340
340
340
340
342
342
341
341
340
341
340
340
339
338
339
339
339
339
340
339
340
340
340
340
340
340
340
340
340
339
339
339
338
339
338
338
338
338
338
338
339
339
339
339
339
339
339
339
339
339
339
339
339
339
338
339
339
339
339
339
340
340
341
341
341
341
341
341
340
340
339
339
339
338
338
338
338
339
339
340
340
340
340
341
342
341
340
340
341
340
340
339
339
339
340
339
339
339
340
341
341
341
342
342
342
342
342
342
342
341
341
340
340
340
340
339
340
340
340
341
341
342
342
342
342
342
343
342
341
341
341
340
340
340
340
339
339
340
340
341
341
341
342
341
342
343
342
342
341
341
341
340
340
340
340
339
339
340
341
340
341
341
342
342
342
342
342
341
341
340
340
340
340
340
339
340
340
340
341
341
342
343
342
342
342
342
342
342
342
341
341
341
341
341
340
340
341
341
341
341
342
342
342
342
342
342
342
342
341
341
340
340
340
340
339
340
340
340
340
340
340
340
341
341
341
342
343
343
343
344
345
344
344
344
344
345
346
345
346
346
346
346
346
346
346
346
347
347
346
345
345
345
344
344
344
344
344
344
344
345
345
346
346
347
347
346
346
346
346
345
345
344
344
344
344
344
345
345
346
348
348
349
349
349
348
348
347
346
345
344
343
343
342
342
342
342
343
343
344
344
345
345
345
345
345
346
346
345
344
344
343
341
342
340
341
339
338
339
339
339
339
339
340
340
340
340
340
340
340
340
339
339
339
339
339
339
340
340
340
340
341
341
341
341
341
340
341
340
339
339
338
338
337
337
337
337
337
337
338
338
338
338
339
339
339
340
340
340
340
339
339
339
339
339
340
339
339
340
340
341
342
342
343
344
344
344
347
348
348
350
352
354
356
358
360
363
366
369
372
374
377
380
382
385
386
389
391
393
395
396
397
398
399
399
398
398
396
394
391
388
384
380
376
371
366
361
356
351
346
341
336
332
327
323
319
316
313
311
310
309
308
307
307
306
308
307
307
308
309
310
311
312
315
316
317
320
321
323
324
326
328
330
330
333
333
335
334
334
335
334
335
335
335
335
336
336
337
337
338
338
339
339
340
339
339
339
339
339
338
338
337
337
336
336
336
336
336
336
337
338
338
338
338
338
338
338
338
338
337
337
337
338
338
339
339
340
341
341
342
343
343
344
344
344
344
344
344
343
343
343
342
342
342
342
341
341
341
342
342
342
343
343
343
343
343
343
343
342
342
342
341
341
341
341
341
341
341
341
342
342
343
343
343
343
343
343
342
342
342
342
341
341
340
340
340
340
341
341
341
343
344
345
346
347
347
348
348
348
347
347
346
345
345
345
345
345
345
346
346
346
347
347
347
347
347
346
346
346
345
345
345
344
345
345
345
345
344
345
345
345
346
347
348
349
349
350
350
350
350
350
351
350
350
350
350
350
350
350
350
350
351
351
351
351
351
350
351
350
350
350
349
349
349
348
348
346
347
346
345
345
345
344
345
344
345
344
344
344
344
343
343
343
343
343
343
343
343
344
344
344
345
345
346
345
344
343
342
341
340
339
338
338
337
337
337
337
337
338
338
339
339
340
340
339
339
338
337
336
335
334
334
333
333
333
332
332
333
333
333
334
335
335
336
336
335
335
336
336
335
334
335
335
334
334
334
333
335
334
335
335
335
337
337
337
337
337
337
337
337
336
336
336
336
335
335
335
335
335
335
335
335
336
336
336
337
336
336
336
336
335
335
335
335
335
335
335
335
335
336
337
337
337
337
337
338
337
337
337
336
336
335
335
335
334
335
335
336
335
335
337
337
337
336
338
338
338
337
338
337
337
337
336
336
335
336
335
335
335
336
336
336
337
337
337
337
337
337
337
337
337
336
336
336
335
335
337
335
335
336
337
336
337
337
340
338
338
338
337
337
337
336
337
336
335
336
336
335
336
336
336
336
336
337
337
339
337
337
337
336
336
336
336
335
336
336
336
336
337
337
338
337
338
339
338
338
338
338
337
338
337
337
336
336
336
336
336
336
337
337
337
340
338
340
339
339
339
338
338
338
337
336
336
335
336
336
337
337
337
337
338
338
338
338
338
338
338
338
338
339
339
338
338
337
337
337
337
337
338
338
338
338
337
337
338
338
338
338
338
338
337
338
338
337
339
337
338
338
338
338
339
339
339
340
339
339
339
339
339
338
338
338
337
338
338
337
337
337
338
338
338
338
338
340
339
340
339
339
339
339
339
339
338
337
338
338
338
338
339
339
339
339
340
340
340
340
340
340
340
339
339
338
338
338
338
339
339
338
338
339
339
339
339
340
340
340
340
340
339
340
340
340
339
339
339
338
339
338
339
339
339
339
339
339
340
340
340
340
340
341
339
339
338
339
338
338
338
339
339
339
340
341
341
341
341
341
341
340
340
340
339
339
339
340
339
339
339
339
340
340
341
341
341
341
341
341
340
341
340
340
340
339
339
339
338
338
339
340
340
340
340
341
341
341
342
342
341
342
342
342
340
340
339
339
339
339
338
338
340
339
339
340
340
341
341
341
342
341
341
341
341
340
340
339
340
339
339
340
340
340
341
341
342
342
342
342
342
342
341
341
340
340
339
339
339
339
339
339
339
339
340
340
341
341
342
342
341
341
340
340
340
339
339
339
339
338
339
340
340
341
341
342
344
344
342
342
343
343
342
342
342
341
340
340
340
339
340
340
340
341
341
341
341
342
342
342
342
342
342
343
342
341
341
341
341
341
340
340
340
341
341
341
341
341
341
342
342
343
343
343
344
344
345
345
345
345
345
345
346
345
346
346
347
347
347
347
347
348
347
347
346
346
345
345
344
345
345
344
344
344
345
345
345
345
345
345
345
345
344
344
344
344
343
344
343
343
344
344
345
346
347
348
348
349
349
349
348
347
346
346
345
345
344
343
343
343
343
344
344
344
344
345
345
345
346
346
346
346
345
345
344
343
342
341
340
339
339
338
338
339
338
338
338
339
338
339
339
339
340
340
341
340
340
339
339
339
339
340
340
340
340
340
340
341
340
340
340
341
342
340
339
339
339
338
338
337
338
338
338
338
339
340
340
340
340
341
342
341
341
340
340
339
339
339
339
339
339
339
339
339
340
340
341
341
343
343
344
345
346
348
348
349
350
352
354
357
359
362
365
368
370
373
376
379
381
383
386
388
390
391
393
396
397
398
400
399
399
398
397
395
392
389
386
382
378
374
369
364
359
353
349
343
338
334
329
324
321
318
315
312
310
309
308
307
306
306
306
306
306
307
307
308
309
311
313
314
316
318
320
322
323
325
327
328
329
331
332
332
333
333
333
333
333
334
334
335
336
336
337
338
340
340
340
340
341
341
341
340
340
339
339
338
338
337
337
337
336
337
337
337
337
337
338
338
338
338
338
338
338
338
337
337
337
338
338
338
339
340
341
341
342
343
343
343
344
344
344
343
343
342
343
342
342
341
341
341
342
342
342
342
343
344
343
343
343
343
343
343
342
344
342
342
341
341
341
342
341
342
342
344
343
343
344
345
345
344
344
344
344
344
343
343
343
342
343
342
342
342
342
342
344
344
345
345
346
347
348
348
349
348
348
348
347
346
346
346
346
346
346
346
346
346
347
347
348
348
348
348
348
348
347
347
347
346
346
346
346
346
346
346
347
347
347
348
349
350
350
350
350
350
351
352
351
350
349
349
350
350
349
348
350
350
349
350
350
350
351
351
350
350
349
349
349
349
348
348
348
348
347
347
346
346
345
345
345
345
344
344
344
344
344
344
344
344
344
344
344
344
344
344
345
346
346
346
345
345
344
343
342
341
340
339
338
338
337
337
338
338
339
339
339
339
340
340
340
339
339
338
336
335
336
334
333
332
333
333
332
332
333
333
334
334
335
335
335
336
335
335
336
335
336
335
334
334
333
333
334
334
334
334
335
335
335
336
336
336
336
336
335
335
336
335
334
334
335
335
335
336
336
336
336
336
336
337
337
336
336
336
336
335
335
335
334
334
334
334
335
335
335
335
336
337
337
338
338
338
337
338
338
337
336
336
336
335
334
335
335
335
336
335
336
336
337
337
337
337
338
337
337
337
337
336
336
337
336
336
336
336
336
336
337
337
337
338
338
338
338
338
337
337
337
336
336
336
336
336
336
336
336
336
337
337
337
338
339
338
338
338
338
337
337
336
336
336
336
336
336
336
336
337
337
338
339
339
339
339
339
339
338
338
338
337
337
336
336
336
336
336
337
337
338
338
338
338
339
339
339
339
339
338
338
338
337
337
337
337
339
338
337
337
338
338
339
339
340
339
339
339
339
339
338
338
337
338
337
337
337
337
337
337
337
338
338
339
339
339
339
339
339
339
339
338
338
338
337
338
338
337
337
338
339
338
338
340
340
340
340
340
340
339
340
338
338
338
338
338
338
338
338
338
339
339
339
340
340
340
340
339
339
339
339
338
338
338
338
338
338
338
338
338
339
339
340
339
340
339
340
339
339
338
338
338
337
337
337
337
337
337
337
337
338
338
339
340
340
340
340
340
340
340
339
339
338
338
338
337
338
338
338
338
338
339
339
339
340
339
339
340
339
339
340
339
338
338
339
338
339
339
339
339
340
340
340
341
341
341
341
341
342
341
340
340
340
339
339
339
340
339
339
339
340
340
341
341
341
341
341
341
341
340
340
340
340
339
339
339
340
340
340
340
340
341
340
340
341
341
341
341
341
340
341
341
340
339
340
340
339
339
339
339
339
340
340
340
340
341
341
340
340
340
340
340
340
340
340
339
340
340
340
340
340
340
340
341
341
342
341
341
340
340
340
339
339
339
339
339
339
339
340
340
340
340
340
340
340
340
340
340
340
339
339
339
339
339
339
338
338
338
339
339
339
340
340
341
341
340
340
340
340
341
340
340
341
340
340
339
339
339
339
340
340
340
341
342
341
341
341
341
341
341
340
340
340
340
340
339
340
339
340
340
340
341
341
341
341
341
341
342
341
341
341
341
341
341
341
341
341
340
340
340
341
341
341
342
342
342
342
342
343
343
344
343
344
344
344
344
344
345
345
346
346
346
347
347
346
346
346
347
346
345
345
344
344
344
343
343
344
344
344
345
345
346
346
346
347
346
346
346
345
345
344
344
344
344
344
343
344
344
344
345
346
347
348
349
350
350
349
348
347
347
346
345
344
343
342
342
342
342
342
342
343
344
344
345
345
345
346
346
346
346
346
346
346
345
344
344
343
342
340
341
340
340
339
339
340
340
340
340
340
340
340
339
339
339
339
339
339
339
340
339
340
340
342
341
340
341
341
340
340
339
339
339
338
338
338
338
338
338
338
338
339
339
340
341
341
342
341
341
341
340
340
340
339
339
339
339
339
339
339
339
339
341
340
341
341
342
343
344
344
345
346
348
348
349
352
354
355
359
362
364
367
370
373
375
378
382
383
385
387
390
391
393
395
397
398
399
400
400
400
399
397
395
392
388
385
381
376
370
367
360
355
349
343
338
333
329
325
321
318
315
313
311
310
310
308
307
306
306
306
306
307
307
308
309
311
313
315
316
318
320
321
323
325
326
328
329
330
331
332
332
332
333
333
333
333
334
335
336
337
337
338
339
339
339
340
339
339
339
338
338
338
338
337
337
336
336
336
337
337
337
338
338
339
339
339
339
339
339
339
339
338
338
337
338
338
339
339
340
341
342
343
344
345
345
345
345
345
345
345
344
344
343
343
343
342
342
342
342
342
342
343
343
344
343
343
343
344
343
343
344
342
342
342
342
341
341
341
341
341
343
343
343
343
344
344
344
344
344
344
343
343
343
342
341
341
341
341
341
341
341
342
342
343
344
344
345
346
346
346
347
347
347
346
346
346
346
346
346
346
346
346
346
346
346
346
347
348
347
347
347
346
346
346
346
346
346
346
347
347
348
348
347
348
349
350
349
350
351
351
351
351
351
351
351
350
350
350
350
351
349
350
350
351
351
351
353
352
352
352
351
350
350
350
349
349
349
348
348
347
347
347
346
346
346
347
346
346
346
345
345
345
344
344
344
343
343
343
343
343
343
344
345
345
345
345
345
344
343
342
341
341
340
339
338
338
337
337
339
339
338
339
339
340
340
340
340
339
339
338
338
336
334
334
333
332
332
332
331
332
332
333
334
334
335
336
336
336
336
336
336
336
336
335
335
335
335
335
334
335
335
335
335
336
336
336
336
336
336
336
335
336
336
335
335
335
335
335
336
336
336
337
337
336
336
337
337
338
337
336
336
337
336
336
335
335
336
337
335
335
336
336
337
337
336
337
338
337
336
336
336
335
335
335
335
335
335
335
335
335
336
336
337
337
338
338
338
338
338
337
337
336
336
335
335
335
335
335
335
335
336
336
336
336
337
337
337
338
338
338
338
337
337
337
337
336
336
336
336
336
336
336
336
336
337
337
338
338
337
339
339
337
337
337
336
336
336
336
336
336
336
338
337
338
338
337
337
338
338
337
337
338
338
337
338
336
336
336
336
337
337
338
338
338
339
338
339
338
338
338
338
338
338
337
337
337
337
337
337
337
338
338
338
338
339
339
340
340
340
340
341
339
339
339
339
339
339
339
338
339
339
339
339
339
340
339
339
339
340
339
339
339
339
338
337
337
337
337
338
336
337
337
337
337
338
338
338
339
339
339
340
339
339
338
339
338
338
338
338
338
338
339
339
339
339
339
339
339
339
339
339
339
338
338
338
338
338
338
338
338
339
339
340
340
340
341
341
342
341
341
341
340
340
339
338
339
338
338
339
339
340
341
341
340
341
341
341
341
341
340
339
339
340
338
338
338
339
337
338
338
339
339
339
339
340
340
340
340
341
339
339
339
339
338
338
338
338
338
338
339
339
339
340
340
340
340
341
341
340
340
340
339
339
339
339
339
339
340
338
339
339
340
340
341
341
341
342
341
341
341
341
341
340
339
340
340
339
339
340
340
342
339
340
341
340
342
341
341
340
341
340
340
340
339
340
339
339
339
339
339
339
340
340
340
341
341
341
341
341
340
340
340
339
339
339
339
339
340
339
339
339
340
340
340
340
340
341
341
340
340
340
339
339
339
338
339
338
338
339
339
340
340
341
341
341
342
341
341
342
340
340
341
341
340
339
339
340
340
339
339
340
340
341
341
341
342
342
341
342
341
340
340
340
340
340
339
340
339
340
340
340
340
340
340
341
341
341
341
341
341
340
340
339
340
340
340
340
341
341
341
341
341
342
342
341
341
341
342
342
341
341
341
340
340
340
341
340
340
340
340
341
342
342
342
342
342
343
344
342
342
344
344
343
343
343
344
344
345
345
345
346
347
347
347
347
347
348
348
348
348
347
346
346
346
346
346
345
345
345
345
345
346
346
346
347
347
347
347
347
346
346
346
345
344
344
344
343
343
344
344
344
346
346
347
348
349
349
349
349
348
347
346
345
344
343
343
342
343
343
343
343
344
344
345
345
345
344
345
345
345
345
344
344
344
344
343
342
341
340
340
339
339
339
339
339
339
339
340
340
339
340
341
339
339
339
339
339
339
339
339
339
340
340
341
341
341
341
342
341
341
341
341
341
340
340
339
339
339
339
339
340
339
340
340
342
341
341
341
341
341
341
341
341
340
340
340
339
341
341
339
340
340
341
341
341
341
342
342
343
343
343
343
344
345
346
348
350
353
356
358
361
364
368
370
373
376
378
380
383
384
386
388
390
392
394
396
397
399
400
400
400
400
400
397
394
391
387
383
378
373
368
363
357
351
345
340
335
331
326
323
319
317
314
312
310
309
308
308
307
306
306
306
306
307
308
309
311
313
314
315
318
320
321
324
325
327
328
330
331
332
333
333
333
333
333
334
334
334
335
336
337
338
339
339
340
340
340
341
340
340
340
340
339
339
339
339
338
339
338
338
339
339
339
339
340
340
340
340
340
339
339
339
338
338
338
338
338
338
339
340
341
342
343
343
344
344
344
344
344
344
344
343
343
342
342
342
342
342
342
342
343
343
343
343
343
344
344
344
344
344
343
343
343
342
342
342
341
342
342
342
342
342
342
344
344
344
344
344
344
343
343
342
342
342
341
341
341
342
342
342
343
343
343
344
344
345
346
347
347
347
347
347
347
347
347
347
346
347
346
347
346
346
347
347
347
347
347
347
347
347
347
347
346
346
346
346
345
345
345
345
346
346
346
346
347
347
348
349
349
350
351
351
352
351
351
350
350
351
350
351
351
352
351
351
351
352
350
351
351
350
350
349
349
348
348
348
348
348
348
348
348
348
347
348
347
347
346
345
345
344
344
343
343
343
343
343
343
343
343
343
344
344
345
345
346
346
347
346
345
344
343
342
341
340
339
339
338
339
338
338
338
339
339
339
340
340
340
340
340
339
338
337
336
336
335
334
334
334
335
334
335
335
335
335
335
335
335
335
335
334
334
335
334
333
333
332
332
332
332
333
333
333
334
334
335
335
335
335
336
335
335
335
335
334
334
334
334
334
334
335
335
335
336
336
336
337
337
338
337
337
336
336
336
336
336
335
336
336
336
336
336
337
338
337
338
338
338
338
338
338
338
338
338
337
338
337
337
336
336
337
336
336
336
337
337
337
337
337
336
337
336
336
336
336
335
335
335
335
335
336
336
337
337
338
338
339
339
339
339
339
339
339
338
338
338
338
337
337
337
337
337
337
338
338
338
339
339
339
339
339
339
339
339
338
338
338
338
338
338
338
338
338
338
339
340
340
340
339
340
340
340
339
339
339
338
337
337
337
337
338
338
338
338
339
339
340
340
340
340
340
339
339
338
338
338
337
337
337
337
337
337
338
338
339
339
339
339
339
339
339
338
338
337
337
337
337
336
337
337
337
337
338
338
338
339
339
339
339
339
339
339
339
339
338
338
338
338
338
338
338
338
338
339
340
339
339
340
340
341
338
339
338
337
337
336
336
336
337
337
337
337
338
338
338
339
339
340
339
339
339
339
339
339
339
339
339
338
338
338
338
338
338
339
339
339
340
340
340
340
340
340
339
340
339
339
339
339
338
338
339
339
339
339
340
340
340
341
341
340
340
340
340
340
339
339
340
340
339
338
338
340
340
339
339
340
340
340
341
340
340
340
340
339
338
339
339
338
338
338
339
339
339
340
339
340
340
340
339
339
339
339
339
338
338
339
338
338
338
338
338
339
339
339
339
339
339
339
339
339
339
339
339
338
338
338
338
339
338
339
339
339
339
340
340
340
340
341
341
341
341
341
341
340
340
341
341
340
341
341
341
340
341
341
341
341
341
341
341
342
341
341
340
340
340
339
339
339
338
339
339
339
339
340
340
340
341
341
341
341
341
340
340
339
339
339
339
339
339
339
339
340
341
341
342
342
342
342
342
342
341
341
341
340
340
340
339
339
339
339
339
339
340
340
340
340
341
341
342
342
342
342
342
342
341
340
340
341
340
339
339
339
339
339
339
339
340
340
340
340
341
341
340
340
340
340
340
340
340
340
339
340
340
340
340
341
341
342
341
341
341
341
341
341
340
340
340
339
339
339
340
340
341
341
341
342
342
342
342
342
342
342
342
342
343
343
343
344
344
345
345
346
346
347
347
347
347
347
347
346
346
346
347
345
344
345
344
344
344
344
344
345
345
345
345
346
346
345
345
345
346
345
345
345
345
345
345
345
345
346
345
345
345
345
346
347
348
348
349
349
349
349
347
347
346
345
345
344
344
344
344
344
344
346
345
345
345
345
345
345
345
345
344
344
344
343
343
342
342
342
341
341
340
340
340
340
339
339
340
340
339
339
339
339
339
339
339
339
339
339
339
339
339
339
339
340
340
339
340
340
340
339
339
339
338
338
338
338
338
338
339
339
339
340
340
341
341
341
341
341
341
341
341
340
340
340
339
339
338
338
338
339
338
338
338
339
339
339
340
341
342
342
342
343
343
344
345
348
350
352
354
358
361
364
366
369
371
374
376
378
380
382
384
386
388
390
392
394
396
397
399
400
400
400
398
396
394
390
386
382
377
372
367
361
356
351
345
340
336
332
328
324
321
318
315
313
311
310
308
307
306
305
305
304
305
305
307
308
310
311
313
316
318
319
322
323
325
325
327
328
329
330
331
332
332
333
333
334
333
335
336
337
337
338
339
339
339
340
339
339
339
339
338
338
338
337
337
337
337
337
337
338
338
338
338
338
339
339
339
338
338
338
337
338
337
337
337
337
337
338
339
340
341
341
343
343
344
344
344
344
344
344
343
343
343
342
341
341
341
341
341
342
342
343
343
343
344
344
344
344
344
343
343
342
342
342
342
342
342
342
342
342
343
343
344
344
344
345
345
345
344
344
344
344
343
343
343
343
343
343
343
342
343
343
343
344
344
345
346
346
347
347
348
348
347
347
347
347
347
347
347
347
347
347
347
347
348
348
348
347
347
347
347
346
346
346
345
345
345
346
346
346
346
347
348
347
347
349
349
349
349
350
351
351
351
351
351
351
352
351
351
352
351
351
351
351
351
351
351
350
350
349
349
349
348
348
348
348
348
349
349
349
349
348
348
347
347
346
346
345
345
344
344
344
344
344
344
344
344
344
344
345
345
345
346
346
346
347
346
346
346
345
344
343
342
341
340
339
338
338
339
339
340
338
340
340
339
339
340
340
339
338
337
336
336
335
334
333
333
333
332
333
333
334
334
335
335
336
336
336
336
336
336
335
336
335
334
334
334
334
334
334
334
335
335
336
336
336
336
336
336
336
336
336
336
335
335
335
334
334
334
335
335
335
336
336
336
337
337
337
337
337
337
336
336
336
336
335
336
336
336
335
336
336
336
336
338
337
337
337
337
337
337
336
335
335
335
335
335
335
335
335
336
336
337
337
337
337
337
337
337
336
336
336
335
335
335
335
335
335
335
335
336
337
336
336
337
337
337
337
337
336
336
336
336
336
336
336
336
336
336
336
337
337
337
338
338
338
338
338
338
338
337
338
336
336
336
337
336
336
336
337
337
337
337
337
337
338
337
337
337
337
337
337
336
336
336
336
336
336
335
336
336
337
338
337
338
338
338
338
338
338
337
337
337
337
337
336
337
337
337
337
338
339
338
338
338
339
339
339
338
338
338
338
338
337
337
337
337
337
337
338
338
338
339
340
340
340
340
340
341
341
339
338
338
338
337
337
337
337
337
337
338
337
338
339
339
339
339
339
340
339
339
339
338
338
337
337
337
337
337
337
338
338
339
339
339
339
339
339
339
339
338
338
338
338
338
338
338
338
338
339
340
340
341
341
341
342
342
342
343
341
341
340
340
339
339
338
338
338
338
339
339
340
340
341
340
340
341
341
340
341
340
339
339
339
339
339
339
340
339
339
340
340
340
340
341
341
341
340
340
339
339
339
339
338
338
338
339
339
339
339
339
340
339
340
340
340
340
340
339
340
339
339
339
339
339
338
338
338
339
339
339
340
340
341
341
341
342
341
341
341
340
340
340
339
339
340
340
339
340
342
342
342
341
341
342
342
341
341
341
341
341
340
340
339
339
339
339
339
339
339
340
340
340
340
340
340
340
340
340
340
340
340
340
340
339
339
338
339
338
339
339
339
339
340
340
340
340
340
340
340
340
339
339
339
339
339
339
339
339
339
340
340
341
341
341
343
342
342
341
342
342
341
341
341
341
340
340
341
341
340
340
341
341
341
340
341
341
340
340
340
340
339
339
339
339
340
340
340
340
341
341
341
341
342
342
342
342
342
343
342
342
341
341
341
340
340
340
340
340
340
341
341
341
341
342
342
342
342
342
342
341
341
341
341
340
340
340
340
341
340
341
341
341
342
342
342
342
342
343
342
342
342
343
342
342
344
344
344
345
345
346
347
347
348
346
347
346
346
346
346
345
345
345
345
344
345
344
344
344
344
345
345
345
345
345
346
346
345
345
346
345
344
344
344
344
344
344
344
345
346
345
346
346
347
348
349
350
350
350
350
350
349
348
347
345
345
344
343
343
344
344
344
344
345
346
346
346
345
346
346
345
344
343
343
343
343
343
343
342
342
342
341
341
341
341
340
340
340
340
340
339
339
338
338
338
338
338
339
339
339
339
339
340
340
340
340
340
340
340
339
339
339
338
339
338
338
338
338
338
339
339
340
340
340
340
341
341
341
340
340
339
339
339
338
338
338
338
337
338
339
339
339
340
341
342
341
341
342
342
342
342
342
343
343
344
345
346
348
351
353
356
359
362
365
368
370
373
376
378
380
382
384
386
388
390
392
394
396
397
399
400
401
400
400
398
395
393
389
385
381
375
370
365
359
354
349
344
339
334
330
326
323
320
317
315
313
311
309
309
307
306
305
305
305
305
306
308
309
310
312
315
316
318
320
322
324
325
326
327
328
329
330
330
330
331
331
332
332
333
334
335
336
336
337
337
338
338
338
338
338
338
337
336
336
335
335
335
336
335
335
336
336
337
338
338
338
339
339
339
338
338
337
338
337
337
336
336
337
337
338
340
341
342
343
344
344
344
344
345
344
344
344
343
342
343
343
341
342
342
342
342
342
342
343
343
343
343
343
343
344
342
342
342
342
341
341
341
342
342
342
343
343
344
344
344
344
344
344
344
344
344
343
342
342
343
342
341
341
342
342
342
342
342
343
343
343
344
346
345
346
346
347
346
347
347
347
347
347
347
347
347
348
348
348
348
348
348
349
349
348
347
347
348
346
345
345
345
345
345
345
346
346
346
348
347
347
348
348
348
349
349
350
350
350
350
350
351
350
352
350
350
350
351
351
351
351
351
351
351
351
351
351
350
350
350
349
349
349
349
349
349
350
350
349
348
348
347
346
346
345
344
344
343
343
343
343
343
343
343
344
345
346
346
346
346
345
346
347
345
345
345
343
342
341
340
339
338
338
337
338
338
339
339
340
340
341
340
340
340
340
339
337
336
335
334
334
333
333
333
333
333
333
333
333
335
334
334
335
334
335
335
335
335
335
335
334
334
334
334
334
334
335
335
335
336
336
336
336
336
336
337
336
335
335
334
335
334
335
334
335
336
335
336
336
338
337
336
336
336
336
336
335
335
334
334
334
334
335
336
336
336
337
337
338
338
338
338
338
338
338
337
337
337
337
337
337
336
336
336
337
337
337
337
337
338
338
338
338
338
337
337
337
337
335
337
336
336
336
336
336
337
337
337
337
338
338
338
338
339
339
338
338
338
338
338
337
337
337
338
337
337
337
337
337
337
338
338
338
337
337
337
337
337
337
336
338
336
337
337
337
337
338
338
339
339
339
339
339
338
338
338
338
338
337
338
337
337
338
338
338
338
338
338
338
338
338
338
338
338
338
338
337
337
337
336
336
336
336
337
337
338
337
338
338
339
339
339
339
339
338
338
339
339
337
337
337
338
337
336
337
337
337
338
338
338
339
340
339
339
339
338
337
337
337
337
337
337
338
337
338
339
339
339
339
340
340
340
340
339
339
339
339
338
338
338
337
338
338
338
338
339
339
339
340
340
340
340
340
339
339
338
338
339
337
337
337
337
337
337
337
337
338
338
338
338
339
339
338
340
340
339
338
338
338
337
337
337
337
337
337
339
337
338
339
340
339
339
340
339
340
339
339
339
339
338
338
338
338
338
338
338
338
339
339
339
339
339
339
339
339
339
338
338
338
338
338
338
337
338
338
338
339
339
340
340
340
340
340
340
340
340
339
339
339
338
338
338
337
337
338
338
338
340
340
339
339
341
340
339
339
339
339
339
338
338
337
337
338
337
338
338
339
339
339
340
339
339
339
339
339
339
338
339
337
338
338
338
338
338
338
338
339
339
340
339
340
340
340
340
340
340
340
340
339
340
339
339
339
339
340
340
341
340
342
341
341
341
341
341
341
340
340
340
339
339
339
339
340
339
339
340
341
341
341
342
343
342
342
342
341
341
341
340
340
340
339
339
339
341
339
340
340
341
341
342
342
342
343
343
343
342
342
342
341
341
340
340
340
340
340
340
340
341
341
343
342
342
342
343
341
341
341
341
340
340
339
339
339
340
340
340
340
340
340
341
341
341
341
341
341
341
341
340
341
340
341
339
339
340
340
340
340
341
341
341
342
342
342
343
343
342
342
342
342
343
343
344
344
345
346
346
347
347
348
348
348
348
348
347
347
346
346
345
345
345
344
344
344
345
344
344
344
345
345
345
346
346
346
346
346
345
345
345
344
344
344
344
344
344
345
345
345
345
345
346
347
347
348
349
351
350
351
349
348
347
347
346
346
345
345
345
344
344
344
345
346
345
345
345
346
345
345
346
345
345
344
345
345
344
346
344
343
343
342
342
342
342
341
341
341
340
339
339
339
338
339
339
339
339
339
339
339
339
340
340
340
340
340
340
340
340
339
339
339
339
339
339
339
339
339
339
339
339
340
340
340
340
340
340
339
339
339
339
338
338
338
338
338
338
338
339
339
339
339
339
340
340
340
340
341
341
341
342
342
343
343
345
346
348
350
353
356
359
362
365
367
370
372
375
377
379
381
382
384
386
388
390
392
394
396
398
399
399
399
399
397
396
393
389
385
381
376
371
366
361
355
350
344
339
335
330
326
323
320
317
314
312
310
308
307
306
305
304
304
304
305
306
307
308
310
312
313
315
317
319
321
322
324
325
326
327
328
329
330
331
331
332
332
332
333
334
335
336
337
337
338
337
338
338
337
337
337
337
336
336
336
336
336
336
336
337
337
338
338
338
339
339
338
338
338
338
337
336
336
335
335
335
335
335
336
337
338
339
340
342
342
343
343
344
343
343
343
343
342
342
341
341
341
340
340
341
341
341
342
342
343
343
343
343
343
343
343
342
342
342
342
340
340
341
341
341
342
341
341
342
342
342
342
343
342
341
341
341
341
341
341
341
340
341
341
341
342
342
343
343
343
343
344
344
344
345
345
346
345
345
345
345
344
344
345
345
345
345
346
346
346
346
346
346
346
345
345
345
344
343
343
343
343
343
343
343
343
343
344
344
345
345
346
346
346
347
347
348
347
347
349
349
349
348
349
349
350
350
350
350
350
350
350
349
349
349
348
347
347
347
347
346
346
346
347
347
348
348
348
347
347
347
346
345
345
344
344
343
343
343
342
342
342
343
343
343
343
343
344
345
345
345
345
345
345
344
343
342
341
340
339
339
338
338
338
338
338
338
339
339
340
340
339
339
341
340
339
339
338
337
336
335
335
334
335
334
334
335
335
335
336
336
336
336
336
336
335
335
334
334
334
333
333
334
334
334
334
335
335
335
336
336
336
336
335
335
335
335
334
334
334
334
334
334
334
334
334
335
335
336
336
337
337
337
337
336
336
335
335
335
334
334
335
335
336
336
335
336
337
337
337
337
337
336
336
337
336
335
335
334
334
333
334
334
334
335
335
336
336
336
337
337
337
337
338
337
336
336
335
335
335
334
335
335
335
336
336
337
337
338
338
338
338
338
338
338
337
337
336
336
336
335
336
336
336
336
336
337
337
337
338
338
338
338
337
337
337
336
336
336
336
336
336
337
336
338
339
339
338
338
339
339
339
339
338
338
338
337
336
336
336
336
336
337
337
337
337
338
338
338
339
339
339
339
339
339
339
338
338
338
339
337
337
337
337
338
338
338
338
338
338
339
339
339
339
338
338
337
337
337
336
336
336
337
337
337
337
338
338
338
338
338
338
339
338
338
338
338
337
338
338
337
338
338
338
338
337
338
338
338
338
338
337
337
337
337
337
336
336
336
336
336
336
336
337
337
337
338
338
338
338
338
338
338
337
337
337
337
337
337
337
337
337
337
337
338
338
338
338
339
339
339
340
339
339
339
339
339
339
338
338
338
338
338
338
339
339
339
339
339
340
340
340
340
340
340
340
341
340
339
339
339
339
338
338
338
337
338
338
338
339
340
339
339
339
339
339
339
338
338
338
338
338
338
338
338
338
339
339
340
340
341
340
340
340
340
340
339
339
339
339
339
339
339
339
339
340
340
340
341
341
341
341
340
340
340
339
339
338
338
338
338
338
338
338
338
338
339
340
340
340
342
342
340
341
341
340
338
339
338
338
337
337
337
337
338
338
338
339
339
341
340
340
340
340
340
340
341
339
339
339
338
338
338
338
339
339
339
340
341
340
340
341
341
340
341
340
340
340
339
339
339
339
340
340
340
340
341
341
341
341
341
342
341
341
341
341
341
340
340
340
340
340
339
340
340
340
340
341
342
341
340
341
341
340
340
339
339
339
339
339
338
338
339
339
340
340
340
340
340
340
340
340
340
340
340
339
339
339
339
339
339
339
339
339
339
339
340
340
341
341
342
342
342
341
341
341
340
340
340
339
339
339
339
339
339
339
340
340
340
341
341
341
341
341
340
340
340
340
340
340
342
342
343
343
343
345
345
347
345
345
346
346
345
345
345
345
344
344
344
343
343
343
343
343
344
344
344
344
344
345
345
345
345
345
345
345
344
344
344
344
344
344
344
344
345
345
345
345
345
346
346
347
347
347
348
348
348
347
348
346
346
345
345
344
344
344
344
345
345
346
346
346
346
346
346
346
346
344
344
344
343
343
342
343
343
342
341
341
341
340
340
339
339
340
338
338
337
337
338
338
338
338
338
338
338
339
339
339
340
340
340
340
339
339
339
339
338
338
338
338
338
338
338
338
339
339
340
340
341
341
341
341
341
341
341
341
342
340
339
339
339
339
339
339
339
339
339
340
340
340
342
341
341
342
342
342
342
344
344
343
344
345
347
348
350
352
355
358
361
363
365
368
371
373
375
378
379
381
383
385
387
389
391
393
395
397
398
399
399
399
397
396
393
390
386
381
377
371
367
361
356
351
346
341
337
333
329
325
322
319
316
313
311
309
308
306
305
304
304
303
304
305
306
307
309
311
313
316
319
320
323
324
326
326
328
328
329
329
330
331
331
332
331
333
333
334
334
335
336
337
337
338
338
338
340
338
338
338
337
337
337
337
337
338
338
338
338
338
339
338
338
339
340
338
338
337
337
337
337
336
336
336
337
336
337
338
339
340
342
342
343
343
344
343
344
343
343
343
342
342
342
342
342
342
342
343
342
343
344
344
346
343
344
344
343
343
343
342
341
341
341
341
340
341
341
341
341
342
342
343
343
343
343
343
343
343
343
343
342
342
342
342
342
342
342
343
343
343
344
344
344
344
344
345
345
346
346
346
346
346
347
347
347
347
348
349
348
348
349
349
348
349
348
348
347
347
346
346
346
346
345
345
346
346
345
345
347
347
347
347
347
347
347
348
346
347
350
348
348
349
349
350
350
350
351
350
350
351
351
350
350
350
350
350
350
349
349
349
348
348
348
348
348
349
349
349
349
350
350
349
349
348
347
346
345
344
344
343
343
342
342
342
342
342
343
343
343
343
344
344
344
344
344
344
343
343
343
343
341
341
340
340
338
339
338
338
338
338
338
338
339
340
339
339
339
339
338
338
337
337
336
336
335
335
335
335
335
335
335
335
335
335
335
335
335
335
335
334
334
334
334
333
333
333
334
334
334
334
334
334
334
334
334
334
333
333
332
333
332
333
333
333
333
333
333
334
335
335
336
336
336
336
336
337
337
337
335
336
335
335
334
334
334
334
334
335
335
335
336
335
336
336
336
336
336
336
335
335
335
335
335
335
335
335
336
337
336
336
337
336
337
337
337
337
337
337
337
337
337
337
337
337
337
337
337
337
338
338
338
338
338
339
338
338
338
338
337
337
336
336
336
336
336
335
336
336
337
338
339
339
339
340
340
339
338
339
338
337
337
336
336
335
335
335
336
335
336
336
337
337
337
337
338
338
338
338
338
338
337
337
337
336
336
336
336
337
337
337
338
338
338
339
339
339
339
340
338
338
337
337
337
337
337
337
337
337
338
338
339
338
338
337
337
337
337
337
337
336
336
336
336
336
337
337
337
338
339
338
338
340
340
339
339
339
338
338
337
337
337
337
337
337
337
337
338
338
338
339
339
340
339
339
339
339
338
339
337
337
337
337
336
336
336
336
336
336
337
337
338
338
338
338
338
338
338
338
338
338
337
336
337
336
336
336
336
336
337
337
337
337
338
338
337
337
337
338
337
337
338
338
338
337
338
339
339
338
338
339
339
339
339
339
338
338
338
338
338
338
338
337
338
338
338
338
338
338
338
339
339
339
339
339
339
339
338
338
338
337
337
337
337
337
337
337
338
338
339
340
339
340
340
340
340
340
339
338
338
337
337
336
336
336
336
336
337
337
338
338
339
339
340
340
340
340
340
339
340
339
339
338
339
339
339
339
339
340
340
340
340
340
340
340
341
339
339
340
338
338
338
338
338
339
339
339
339
339
340
340
340
340
340
341
341
340
340
339
339
339
338
338
338
338
338
338
338
338
339
339
340
340
340
340
340
340
340
339
339
339
339
339
339
339
339
339
339
339
339
340
340
340
341
340
340
340
339
340
339
338
339
339
338
338
338
338
338
339
339
340
340
341
341
341
341
341
341
341
340
340
340
339
339
339
339
339
339
339
339
340
340
340
341
340
341
341
340
340
340
340
340
339
339
339
340
340
340
340
340
340
340
340
340
340
340
340
340
339
339
339
339
339
339
339
339
340
339
340
340
341
342
342
342
342
344
343
341
342
341
340
340
340
340
341
343
343
343
344
345
346
347
347
347
347
347
347
346
346
345
345
344
344
344
344
344
344
344
345
345
345
346
346
346
346
346
345
345
345
344
344
344
343
343
343
343
343
343
343
343
344
344
344
345
345
346
347
347
348
348
348
348
347
347
346
346
345
344
343
345
345
344
344
345
344
344
344
344
344
344
343
343
343
343
343
343
343
345
343
343
343
342
342
341
341
340
340
339
339
339
338
338
338
338
338
337
338
338
338
339
339
339
340
340
340
340
340
341
340
340
340
339
339
339
339
340
339
340
341
341
341
341
341
341
341
341
341
341
340
340
340
340
340
340
340
339
340
341
341
340
341
341
341
341
341
341
341
341
341
341
342
343
343
344
345
346
348
349
351
353
355
358
361
363
366
368
371
373
375
378
380
382
384
386
388
390
393
395
397
399
401
401
401
401
400
398
395
392
387
383
379
374
369
364
358
353
348
343
338
334
330
327
323
320
317
315
313
310
309
307
307
306
305
304
306
307
307
309
310
312
314
316
317
319
322
322
323
325
326
327
329
329
330
331
331
332
333
333
333
334
335
336
336
337
337
338
337
338
337
337
337
337
336
336
336
336
336
336
336
336
337
337
337
337
338
338
338
338
337
337
337
336
336
336
336
336
336
336
336
337
338
340
341
341
342
343
343
343
343
344
342
342
342
341
341
341
341
341
341
341
341
341
342
342
342
342
342
342
341
341
341
341
341
341
341
341
342
341
342
342
342
342
343
343
343
343
342
342
343
341
341
340
340
339
339
339
339
339
340
340
340
341
342
342
342
342
342
342
343
343
343
343
343
343
344
344
344
345
345
346
346
347
348
348
347
347
348
348
346
346
346
345
345
345
344
344
344
344
344
345
345
346
346
346
346
346
346
346
346
346
346
346
347
347
347
348
348
349
349
350
350
350
350
351
351
350
351
350
349
349
348
348
348
348
347
347
347
347
347
347
348
348
349
349
348
348
347
346
345
344
343
343
342
342
342
342
342
343
343
345
345
345
345
345
345
345
344
344
344
344
343
342
341
340
340
339
338
338
338
338
338
339
338
338
339
339
339
340
339
339
339
338
338
337
337
335
334
333
333
333
333
334
333
334
334
334
334
335
335
335
335
334
334
334
333
333
334
334
334
334
335
335
336
336
336
336
336
336
336
335
336
335
335
335
335
334
334
336
336
335
335
335
336
336
335
335
335
335
337
335
334
334
334
334
334
334
334
335
336
336
337
337
337
337
337
338
337
337
337
337
337
336
336
336
336
336
336
336
336
336
336
336
336
337
337
337
337
337
337
336
336
336
336
335
335
335
335
335
335
336
336
337
337
337
337
337
337
338
337
336
336
336
336
335
335
335
336
335
335
336
336
336
336
336
336
336
337
336
336
336
336
335
335
336
336
336
336
337
337
337
338
339
339
339
339
339
339
339
338
338
337
336
336
336
335
335
335
335
336
336
336
337
337
337
338
338
338
338
338
337
337
338
337
337
337
338
337
337
337
337
338
338
338
338
339
340
340
339
339
340
339
338
338
338
337
337
337
337
337
337
338
338
339
339
340
340
340
340
340
340
339
340
338
338
339
338
338
338
338
338
339
339
339
339
339
340
339
339
339
339
339
338
338
338
338
338
338
338
339
339
339
339
340
340
341
340
340
340
340
339
339
338
338
338
337
337
337
337
337
338
338
338
337
340
340
338
339
339
339
338
338
338
338
338
338
337
337
338
339
338
338
339
339
339
339
339
339
339
339
339
338
338
338
338
337
338
338
338
339
339
339
340
340
340
341
341
340
340
339
339
338
338
337
337
337
337
338
338
338
338
339
339
339
340
340
340
340
340
341
340
339
340
340
340
340
340
341
341
341
341
342
342
342
341
342
341
341
340
340
339
339
339
338
338
338
339
339
339
339
339
340
341
341
341
341
342
341
341
340
340
340
340
340
339
339
339
339
339
339
340
340
340
341
341
341
341
341
341
341
341
340
340
340
340
340
340
340
341
340
341
341
341
342
342
342
343
342
342
342
341
341
341
340
340
341
341
340
340
341
340
340
341
341
341
341
341
342
341
342
342
341
341
341
341
341
341
341
341
342
341
341
341
341
341
341
341
341
340
340
340
340
340
340
340
340
341
340
340
341
341
341
341
341
341
341
341
340
340
340
340
339
339
340
339
339
339
339
340
340
340
341
341
341
341
342
342
342
342
343
343
341
340
341
341
340
340
341
341
341
341
341
342
342
343
342
342
342
342
342
341
341
340
341
341
341
341
342
344
344
345
346
347
348
348
348
348
348
348
348
348
347
347
347
346
346
346
345
346
346
346
346
346
347
347
347
347
347
347
347
347
346
346
346
345
345
345
345
345
346
345
346
346
346
347
347
347
347
347
348
349
349
349
348
348
347
347
347
346
346
346
346
346
346
346
345
345
345
345
346
345
345
344
344
344
344
344
344
344
344
344
344
344
343
342
342
341
340
339
338
338
338
337
337
337
337
337
337
338
338
338
339
340
340
340
340
340
340
340
339
339
339
338
338
338
339
339
339
339
339
339
339
340
339
340
340
340
340
340
340
339
339
339
339
340
339
340
340
340
340
340
340
340
340
340
340
340
340
340
340
340
340
341
342
342
343
344
344
346
348
350
352
354
357
360
363
365
368
370
372
374
376
378
381
383
384
386
389
391
393
395
397
399
400
401
400
399
398
395
392
389
384
379
376
371
366
361
357
352
347
342
338
335
331
327
323
320
317
313
311
309
307
305
304
303
302
303
303
305
306
308
310
311
314
316
317
319
320
322
323
324
325
326
327
329
330
332
332
333
333
334
334
335
336
337
337
337
338
338
339
337
337
337
338
337
337
336
336
336
337
337
337
337
337
338
338
338
338
338
338
337
337
337
336
336
336
336
336
337
337
337
338
339
340
342
342
343
343
344
344
343
343
343
342
342
342
342
342
342
342
342
342
343
343
344
344
344
344
344
344
344
343
343
342
342
341
341
341
341
342
341
342
342
343
343
343
343
343
343
343
343
342
342
342
342
342
342
342
342
342
342
342
343
344
343
344
344
344
343
343
343
344
344
345
345
345
345
345
345
346
346
346
346
346
347
346
346
346
346
347
346
346
345
345
345
345
345
346
346
346
347
347
348
348
348
347
349
349
349
347
347
347
347
347
347
348
348
349
349
350
350
351
352
352
353
353
353
352
353
352
351
351
350
350
350
349
349
349
349
350
350
350
350
350
351
350
350
349
348
347
347
346
345
345
344
344
344
344
344
345
345
345
345
345
345
345
346
346
345
345
345
344
344
343
343
342
342
341
340
341
341
341
340
341
341
340
340
341
340
340
340
340
339
340
339
338
338
337
336
336
336
336
336
335
336
336
336
336
336
336
335
335
335
335
335
335
335
335
335
335
336
337
337
338
338
338
338
338
337
337
336
336
336
335
335
335
335
335
335
336
336
336
337
337
337
337
337
337
337
337
338
337
337
337
337
337
336
336
337
337
336
337
337
337
336
336
335
335
336
335
335
335
336
335
335
335
335
335
335
336
336
336
337
337
337
338
338
338
337
337
337
336
336
336
335
335
335
335
335
336
336
336
337
337
337
338
338
338
338
338
338
338
337
337
337
337
337
337
337
337
336
338
337
337
338
338
338
338
338
338
338
337
338
337
337
337
337
337
337
338
337
337
338
338
338
338
339
339
339
338
338
338
338
338
338
338
338
338
338
339
338
338
338
338
338
338
340
338
338
338
338
338
338
337
337
337
337
337
337
337
337
337
338
338
338
338
338
338
339
338
337
337
337
337
337
337
337
337
338
338
338
338
340
339
340
341
342
340
339
340
340
339
338
338
338
337
337
337
337
337
338
338
339
339
340
340
340
341
340
340
340
339
339
339
339
338
339
339
339
339
340
340
340
340
340
340
340
340
340
340
339
339
340
339
339
339
339
340
340
340
340
340
341
341
341
341
341
341
341
340
340
339
339
339
338
338
338
338
338
339
340
339
340
341
341
340
341
341
340
340
340
339
339
338
338
337
338
338
338
339
339
339
340
340
340
340
340
340
340
340
339
339
339
338
338
337
337
338
338
338
338
339
340
340
340
340
341
341
341
341
340
340
340
339
339
339
339
339
341
339
339
339
339
340
340
340
340
341
341
341
340
340
340
339
340
340
340
340
340
340
340
342
342
341
341
341
341
341
340
339
339
339
339
339
338
338
338
339
339
339
340
340
341
342
341
341
341
342
341
341
340
340
339
340
339
338
338
339
339
339
339
339
339
340
340
341
341
341
341
340
340
340
339
339
339
339
339
340
339
339
340
341
341
341
341
341
341
341
341
340
340
339
340
338
339
340
340
339
339
340
340
340
340
340
340
341
341
340
340
340
340
339
339
339
339
339
339
339
339
339
339
339
340
340
341
341
341
341
341
343
341
340
341
340
339
339
339
339
338
339
339
339
339
340
340
341
341
340
341
340
339
340
338
338
338
338
338
338
338
338
338
339
339
340
340
341
341
341
341
341
340
339
340
339
339
338
339
339
340
341
343
344
345
347
347
347
348
347
347
346
345
345
344
344
343
343
343
343
344
344
344
344
345
345
345
346
346
346
345
346
345
345
346
344
344
344
344
344
344
344
345
345
345
346
346
346
346
346
347
347
348
348
349
349
348
348
347
346
346
345
345
345
345
345
345
344
346
346
345
345
345
345
344
344
343
343
343
344
343
343
345
344
345
343
343
343
343
342
341
340
340
339
339
338
339
339
339
339
339
340
340
340
341
341
341
341
341
340
340
340
340
339
339
339
339
338
338
338
340
339
339
339
339
340
340
340
339
340
340
339
339
340
338
338
338
338
338
338
338
339
340
340
341
342
342
341
342
342
343
342
342
341
341
341
342
343
343
344
345
346
347
349
352
354
356
359
363
365
367
370
372
374
376
378
380
382
384
386
389
391
393
396
398
400
401
402
403
404
401
398
394
391
386
382
377
373
368
363
358
353
348
343
339
335
330
326
322
319
316
313
310
309
308
306
306
305
304
305
306
306
307
309
311
313
314
316
318
319
321
322
323
324
325
326
328
329
330
331
332
333
333
334
335
336
337
337
338
339
339
339
339
339
339
338
337
337
337
337
337
338
338
340
339
339
339
340
340
340
340
340
339
339
338
338
337
337
337
337
338
337
337
338
338
339
340
341
342
342
343
343
343
344
344
343
342
342
343
344
342
343
343
343
344
343
343
344
343
343
343
343
342
342
341
341
341
341
341
342
342
343
343
343
344
344
344
344
344
344
344
344
344
343
343
342
343
342
342
342
342
342
343
343
343
344
343
344
344
343
343
343
343
343
343
344
344
345
345
346
346
348
348
348
349
349
350
350
350
349
348
348
349
347
347
346
346
346
345
345
345
345
345
345
345
347
346
347
347
347
347
346
346
345
345
346
346
347
347
347
348
349
349
350
351
351
352
352
352
351
351
351
350
349
349
348
348
348
348
348
348
349
349
349
350
350
351
352
351
350
349
348
346
346
345
344
343
342
342
342
342
342
343
343
344
345
346
345
346
346
345
345
346
345
345
344
344
343
342
342
341
340
340
340
340
340
340
340
339
340
340
340
340
339
339
339
339
338
338
337
336
335
335
335
336
335
335
335
335
336
336
336
336
335
335
335
335
335
335
334
335
335
335
336
336
337
337
338
338
338
337
337
337
336
336
336
336
336
335
336
336
335
337
338
338
338
338
338
338
337
337
337
336
337
335
335
335
335
335
335
336
336
337
337
338
338
338
339
339
339
338
338
338
338
338
337
337
336
336
336
336
336
338
337
337
337
337
338
338
338
338
338
337
337
336
336
336
336
336
336
337
336
337
337
338
338
338
338
338
338
338
337
338
338
337
337
338
337
336
336
337
337
337
338
338
338
338
339
337
337
337
337
337
337
337
337
337
337
337
338
338
338
339
339
339
339
339
339
339
339
339
339
338
339
338
338
338
338
338
338
338
338
338
339
338
339
339
339
339
339
339
339
338
338
338
337
337
337
336
337
336
337
337
338
338
338
339
340
339
339
340
341
340
339
340
340
338
338
338
338
338
338
338
340
339
339
339
340
340
340
341
340
339
339
339
339
339
338
339
339
339
339
339
339
340
340
340
340
340
340
340
340
339
339
340
339
338
338
338
339
339
339
339
340
340
341
341
341
341
341
340
340
340
340
339
339
338
338
339
338
338
338
338
339
340
340
340
341
341
341
340
341
340
340
339
339
338
338
338
338
338
338
339
339
340
339
340
340
340
340
340
341
340
340
340
339
339
339
339
339
339
339
339
340
340
341
341
342
341
341
341
341
341
340
340
339
339
339
339
339
339
339
340
340
340
341
341
341
342
342
342
341
341
341
340
340
341
340
340
342
341
340
341
342
341
342
342
342
342
342
342
341
341
341
340
340
340
341
340
340
341
341
341
341
341
341
342
342
342
342
342
342
341
341
342
340
341
340
340
340
340
340
340
340
341
341
341
341
342
342
342
342
342
342
341
341
341
340
340
340
340
342
341
341
342
342
342
342
341
342
342
341
341
341
342
340
341
340
340
341
341
341
341
342
342
343
343
343
343
342
342
341
341
341
340
340
340
339
340
339
340
339
340
340
341
341
341
342
343
342
342
342
342
342
341
341
341
340
340
340
340
341
341
341
342
342
342
343
342
342
343
342
342
341
341
340
340
340
339
340
340
340
340
341
341
342
342
342
342
342
342
342
342
342
342
341
341
341
341
340
339
340
340
340
341
341
341
342
342
342
342
342
342
341
341
341
341
341
341
341
342
342
344
345
346
346
347
348
349
348
349
349
348
348
347
347
346
345
345
345
345
344
345
344
345
345
346
346
346
348
347
347
347
348
346
346
345
345
345
345
345
345
346
345
346
346
346
347
347
346
346
348
348
347
348
349
349
349
349
349
348
348
347
347
346
347
347
346
346
346
346
345
345
345
344
345
344
343
343
343
343
343
344
344
344
344
344
344
343
343
342
342
341
340
339
339
339
338
338
338
338
338
339
340
340
340
341
342
341
341
341
341
341
341
341
340
339
340
340
340
340
340
340
340
341
342
342
341
342
342
342
341
341
341
340
340
340
340
341
340
340
340
341
341
342
342
342
342
342
343
343
342
342
343
342
342
343
343
343
344
345
345
346
348
349
351
354
356
358
361
363
366
368
370
372
375
377
379
381
384
386
388
390
393
395
397
400
401
401
402
402
400
398
395
392
388
383
379
375
370
365
360
356
350
346
341
337
334
329
325
322
319
315
314
311
309
307
305
305
304
305
305
306
307
309
310
312
313
315
317
318
320
321
322
323
324
325
327
328
329
330
332
333
333
334
335
336
336
337
338
337
338
338
338
337
338
338
337
337
338
337
337
338
338
339
339
340
340
340
340
340
340
340
340
339
340
339
339
338
338
339
339
338
338
338
339
340
341
341
342
343
343
344
344
344
344
343
343
343
342
343
342
343
343
343
343
343
343
343
343
343
343
343
343
342
342
343
342
342
342
342
343
343
343
344
344
344
344
344
344
344
343
343
344
343
342
342
342
342
342
341
342
342
343
343
343
343
344
344
344
344
344
343
343
344
344
344
344
345
346
346
347
347
347
348
348
348
348
348
348
349
347
347
347
347
346
346
345
346
346
346
346
346
346
346
346
347
347
347
346
346
346
346
345
345
345
345
346
347
347
348
349
350
351
352
352
353
353
353
353
352
352
351
351
350
349
349
348
348
348
348
348
348
350
350
351
351
352
352
352
350
351
349
348
346
345
344
344
343
343
342
342
343
343
344
344
344
345
345
345
345
345
345
344
344
343
343
342
342
342
341
340
340
339
339
339
339
339
339
339
339
339
339
338
338
338
338
338
337
337
336
336
335
335
335
335
335
335
335
335
335
335
335
335
335
335
335
335
335
335
335
335
337
336
337
338
338
337
338
337
337
337
336
335
335
335
335
335
335
335
335
335
335
335
336
337
337
337
337
338
338
337
337
337
337
337
336
336
336
337
337
337
338
338
339
338
339
338
339
338
338
338
338
337
337
337
336
336
336
336
336
337
337
337
338
338
338
338
338
338
338
338
338
337
336
336
336
336
336
337
338
337
337
338
338
338
338
338
339
338
338
338
337
337
337
336
336
336
336
336
336
336
336
337
338
338
338
339
339
340
339
340
340
340
339
339
339
339
339
338
339
338
339
338
338
339
339
340
339
338
338
338
338
338
338
337
338
338
338
337
338
338
338
338
339
339
339
339
340
340
340
339
338
339
339
337
337
337
338
337
337
337
337
337
338
338
338
339
339
339
339
339
338
338
337
337
338
337
337
337
337
337
337
338
338
339
339
341
340
339
339
339
339
339
339
339
340
338
338
338
338
339
339
339
339
339
340
340
340
341
341
340
340
340
340
340
339
339
339
339
339
339
339
339
339
339
340
341
340
340
341
341
341
340
341
340
340
339
339
339
339
339
340
340
340
341
341
342
342
342
342
342
341
341
341
341
340
340
340
340
340
340
340
340
341
341
341
342
341
342
342
341
341
341
340
340
340
339
339
339
339
339
340
340
340
340
340
341
341
341
340
340
340
339
339
339
339
339
339
339
340
340
340
340
341
342
341
342
342
343
342
341
341
340
340
339
339
339
339
339
339
339
339
340
340
341
342
341
341
341
342
341
342
340
340
339
340
339
339
339
339
339
339
340
340
340
340
341
341
341
341
341
341
341
340
340
340
340
340
340
340
340
340
340
341
341
341
342
341
342
341
341
341
340
340
340
340
339
340
341
340
340
341
342
341
341
342
343
342
342
342
342
342
341
342
340
340
340
340
339
340
340
340
341
341
341
342
342
342
342
342
342
342
342
342
342
341
341
341
341
341
341
341
341
341
341
342
342
342
342
342
341
341
341
341
340
340
340
340
340
340
340
340
341
341
342
342
342
343
342
343
343
343
342
342
342
341
341
342
341
341
342
342
342
342
342
342
342
342
343
342
342
342
341
341
341
341
340
340
340
340
341
341
341
342
343
343
343
343
343
343
343
342
342
342
342
341
341
341
341
341
341
343
343
345
345
347
347
348
348
348
348
348
348
347
347
347
346
346
345
346
346
346
346
346
347
347
347
347
347
347
347
347
347
347
346
346
346
346
345
345
345
345
345
345
346
346
346
346
346
347
346
346
347
347
348
348
349
348
348
348
348
347
346
346
346
346
346
346
346
345
345
345
345
345
344
344
344
344
344
344
344
345
345
345
345
345
345
344
343
343
342
341
341
340
339
339
338
338
339
339
339
340
341
341
341
342
342
342
342
342
342
341
341
341
340
340
340
340
340
340
340
340
341
341
342
342
342
342
342
342
342
341
341
340
340
340
340
339
340
340
340
340
342
342
342
342
343
343
342
342
342
342
341
341
341
340
341
341
342
343
343
346
345
347
348
350
352
355
357
359
362
364
367
369
372
374
376
378
380
383
385
387
390
392
394
397
399
400
401
401
401
400
399
396
393
389
386
382
377
372
368
363
358
353
348
343
339
334
330
326
322
318
316
312
310
308
308
306
306
305
306
306
307
307
310
311
312
314
316
317
318
320
321
322
323
324
325
326
327
328
330
331
332
332
334
334
335
335
336
337
337
338
338
339
338
337
337
337
337
337
337
338
338
338
339
339
339
340
339
340
339
338
338
338
337
337
337
337
337
337
338
338
338
339
339
339
340
340
342
342
344
344
344
344
344
344
344
343
343
344
343
343
343
344
344
344
344
344
345
344
344
344
344
343
344
343
343
343
344
344
344
344
344
344
344
345
345
345
344
344
344
344
344
344
343
343
343
343
343
343
343
343
343
343
343
343
344
344
344
344
346
343
343
342
342
343
343
343
344
345
345
346
347
347
348
348
348
347
347
348
347
347
347
346
345
345
345
345
345
345
345
345
346
347
347
348
348
350
347
348
347
347
347
347
346
346
346
347
347
348
349
350
351
352
352
352
352
352
352
351
351
351
350
349
349
348
348
347
347
348
348
348
348
349
349
349
350
350
350
350
350
349
348
347
346
345
344
344
344
344
343
344
345
345
344
346
346
346
345
345
345
345
344
344
343
343
344
342
342
341
341
340
340
340
340
340
340
340
341
340
341
340
340
340
339
339
339
339
338
337
337
336
336
336
336
336
336
336
336
335
335
335
335
335
335
335
335
335
335
334
335
334
335
335
335
335
335
335
335
336
335
335
335
335
335
335
335
335
334
336
336
336
336
337
337
337
337
338
337
337
338
336
336
335
335
335
335
335
335
335
335
335
336
336
337
337
337
338
338
338
338
338
337
337
336
336
336
336
336
336
336
337
337
337
338
338
338
338
339
338
338
338
338
338
337
337
337
337
337
337
337
337
337
339
338
338
338
339
339
339
339
338
338
339
338
337
336
337
337
337
337
338
338
339
339
340
340
340
341
340
339
339
338
337
337
336
336
336
336
336
336
336
336
337
337
338
338
338
339
339
339
338
338
338
337
337
337
336
336
336
336
336
337
337
337
337
338
338
338
338
338
338
338
337
337
337
337
337
338
337
337
337
337
338
338
338
339
340
340
339
340
340
340
338
338
338
337
337
337
337
337
338
338
337
337
338
338
338
338
338
338
337
337
337
337
337
336
336
336
336
336
336
337
337
338
339
339
339
340
340
340
339
339
339
339
339
339
338
338
338
338
338
338
340
339
339
340
340
340
341
341
340
340
340
339
339
339
338
338
338
338
339
340
339
340
341
342
341
342
342
341
340
340
340
339
339
339
339
339
339
339
339
340
340
340
341
341
341
341
342
341
341
341
341
340
340
339
339
339
339
339
340
339
339
339
339
339
339
340
339
340
340
340
340
340
339
339
339
339
339
339
340
340
341
341
342
342
342
342
342
342
341
341
341
341
340
340
340
339
341
341
340
342
342
342
342
342
342
343
342
341
341
341
341
340
340
340
340
340
340
340
340
340
340
340
340
341
341
341
341
341
341
341
341
340
340
339
339
339
339
339
340
340
341
341
342
341
341
341
342
341
341
341
341
340
340
340
340
340
340
340
341
341
341
342
341
342
341
341
341
341
341
341
340
340
339
339
339
340
339
340
340
340
340
340
341
341
341
341
341
341
341
340
340
340
340
340
339
340
339
340
340
341
340
341
341
342
343
342
342
342
341
341
341
340
340
340
340
340
341
341
340
341
341
342
341
341
341
342
341
341
342
342
341
341
341
341
340
340
340
341
341
341
342
343
342
342
343
343
344
344
342
342
343
342
342
341
340
341
340
340
340
340
340
341
341
341
342
342
342
342
342
342
341
341
341
341
341
341
340
341
341
343
343
344
345
346
347
347
348
348
348
347
347
347
346
346
345
345
345
345
345
346
346
346
347
347
347
347
347
347
347
346
345
345
345
345
344
344
344
344
344
344
345
346
346
345
346
346
346
345
346
346
345
346
347
347
347
348
349
348
348
349
348
348
348
348
347
347
347
347
347
346
346
345
345
345
345
345
345
345
345
345
345
346
346
346
347
345
345
343
342
341
340
339
339
338
338
338
338
338
339
340
340
340
341
341
342
342
342
342
342
342
341
341
341
340
340
340
341
340
341
342
342
341
342
343
343
342
342
342
342
341
340
340
340
340
339
339
339
339
340
340
340
341
340
341
341
341
341
340
341
340
340
340
339
339
339
339
340
342
342
343
344
346
347
349
351
354
356
359
361
363
366
368
370
372
374
377
379
381
384
387
390
393
396
398
400
401
402
403
402
401
399
397
394
391
386
382
379
375
370
365
360
355
349
344
339
335
330
327
322
319
315
313
310
309
307
307
306
305
306
306
307
308
309
311
313
316
316
318
319
320
322
323
324
325
326
327
329
329
331
333
334
335
335
336
336
337
337
338
339
339
340
339
339
338
338
338
337
337
338
338
338
338
338
338
339
339
340
340
339
339
340
340
338
338
339
339
338
338
339
339
340
340
340
340
341
341
342
342
343
343
344
344
344
343
344
344
344
343
344
344
344
344
344
344
344
344
344
344
344
344
344
343
343
344
343
344
343
344
344
343
343
344
344
344
344
343
343
343
343
343
342
342
342
341
342
342
341
342
342
342
343
343
343
344
344
345
344
345
344
344
343
344
344
343
343
344
344
345
346
346
346
347
348
348
348
348
348
348
348
347
347
347
346
346
346
347
346
346
346
346
347
347
347
348
348
348
347
348
347
347
347
346
346
346
346
347
347
348
350
351
351
353
353
353
353
354
353
353
353
352
352
351
351
350
350
350
350
350
351
351
350
352
352
352
351
352
351
351
351
349
348
347
347
345
345
344
344
343
344
344
345
345
345
346
346
347
347
347
347
348
348
347
345
345
344
344
344
343
343
342
343
342
341
341
341
342
341
341
341
341
340
340
340
339
339
339
339
338
338
337
337
337
337
337
337
337
336
336
336
335
335
334
334
334
334
335
335
334
334
336
336
336
336
337
337
337
337
337
337
338
337
337
336
336
336
336
336
336
336
336
336
337
337
337
337
338
338
338
337
337
336
336
336
336
336
337
336
336
336
336
336
337
337
337
337
337
338
337
338
337
337
337
337
336
336
336
336
336
336
336
336
337
337
337
338
338
338
338
338
338
338
337
337
338
338
337
337
338
338
337
337
337
337
337
338
337
337
338
338
337
337
339
337
337
338
337
337
337
337
337
337
337
338
337
338
338
338
338
338
338
337
337
337
337
337
337
337
337
337
337
337
337
337
338
338
338
338
338
338
337
337
337
337
337
337
337
337
337
337
338
338
339
339
340
340
339
339
339
340
338
339
339
338
337
337
337
337
337
337
337
337
338
338
339
339
339
339
339
340
339
339
338
338
337
337
337
337
337
337
338
338
338
339
339
339
339
340
339
339
339
339
340
339
339
339
339
339
339
339
340
340
340
339
339
339
340
339
339
339
339
338
338
337
337
337
337
338
338
338
339
339
340
341
340
341
341
340
339
340
339
339
338
338
337
337
337
337
337
337
338
339
339
340
340
341
341
341
341
342
340
340
339
339
339
338
338
338
338
339
339
340
340
341
341
341
341
341
341
341
341
340
340
340
339
339
339
339
339
339
339
340
339
340
340
340
340
341
341
340
340
340
340
340
340
339
340
339
340
340
340
340
340
340
342
341
340
341
340
341
340
339
339
338
338
337
337
337
338
337
338
339
339
339
340
340
340
340
340
340
340
339
339
339
338
339
338
338
339
339
339
339
340
340
341
341
341
341
341
341
341
340
340
340
339
339
339
339
339
339
339
340
341
341
341
341
341
341
341
341
340
340
340
340
340
339
340
340
340
339
340
340
341
341
341
341
341
342
342
341
341
341
342
340
340
342
340
340
340
340
340
341
341
341
342
341
342
342
342
342
341
341
341
341
340
340
340
340
340
341
340
341
340
341
341
341
341
342
342
342
342
341
341
341
340
341
340
340
340
340
340
340
340
340
341
341
342
342
342
341
342
341
342
340
341
340
340
339
339
340
339
340
340
340
340
341
341
341
341
341
340
340
340
340
340
340
340
340
340
340
340
341
341
341
342
342
342
342
342
342
341
341
340
340
340
340
340
340
341
341
342
343
344
346
347
347
348
348
348
348
347
347
346
346
346
346
345
345
345
346
346
346
346
347
347
347
349
348
348
347
347
346
346
346
345
345
345
345
345
345
346
346
347
347
347
347
347
347
346
346
346
346
346
347
347
348
348
349
349
349
349
349
348
348
347
347
346
346
346
346
345
345
344
344
344
344
343
344
344
343
344
344
345
345
346
346
346
346
345
345
343
343
342
341
341
340
340
340
340
340
339
340
341
342
341
341
341
342
342
342
342
341
341
340
340
340
340
340
340
340
340
340
341
341
341
342
342
341
341
340
340
340
339
339
339
339
338
338
339
339
339
340
340
340
341
342
342
342
342
342
342
342
342
341
341
341
341
341
342
343
344
344
345
347
348
350
351
353
355
358
360
361
364
366
368
371
374
377
378
381
384
387
389
391
394
396
398
399
401
401
401
400
399
397
394
392
387
384
380
376
371
367
361
356
351
346
342
336
332
328
323
320
316
313
310
309
307
306
305
304
304
305
305
306
307
309
310
312
314
315
316
318
319
320
321
323
324
324
326
327
330
330
331
333
334
335
335
336
336
338
338
337
337
337
338
337
337
337
337
337
337
337
337
339
338
338
338
340
339
339
339
338
338
338
337
337
337
336
337
337
337
338
338
338
339
339
339
339
340
340
341
342
342
342
342
343
343
344
344
344
345
345
345
345
345
346
346
346
345
345
344
344
344
344
343
343
343
344
343
343
343
344
344
344
345
345
346
346
346
346
345
345
345
344
343
343
343
343
342
342
343
343
344
344
344
344
345
344
344
344
344
344
344
344
344
343
344
344
345
345
346
347
347
347
347
348
348
349
349
349
349
349
348
347
347
346
347
346
346
346
346
346
346
348
347
347
346
347
347
347
347
347
347
347
346
346
346
346
346
347
348
349
350
351
351
353
353
352
352
352
352
351
350
350
349
349
350
348
348
348
348
348
349
349
349
349
350
350
350
350
349
348
347
347
346
345
344
343
343
343
343
343
343
344
344
344
345
345
345
346
345
344
344
344
343
343
343
343
343
342
342
341
341
340
340
340
339
339
338
338
338
337
337
337
337
337
338
337
337
338
338
337
336
337
337
336
336
335
335
335
335
334
334
334
334
334
334
334
334
335
335
335
335
336
336
336
336
336
336
336
337
336
336
335
335
335
335
336
335
335
336
336
336
337
336
337
337
336
336
336
335
335
335
335
335
335
336
335
336
336
336
337
337
337
337
337
337
337
337
337
336
337
336
336
336
334
335
336
336
335
336
337
337
337
337
337
337
337
338
337
336
336
336
336
336
336
335
336
336
337
337
337
338
339
339
339
340
339
338
338
338
338
338
337
337
336
336
336
336
337
337
337
338
338
338
337
338
338
338
338
337
337
337
336
337
336
337
337
337
337
337
338
338
338
338
339
339
339
338
337
338
337
336
336
336
336
336
336
336
336
337
337
338
338
338
338
339
339
338
339
339
338
338
337
336
336
336
336
336
336
336
336
338
337
337
337
338
338
338
338
338
338
338
338
337
337
338
337
337
338
338
338
338
339
339
339
340
341
340
339
339
338
338
338
337
337
337
337
337
338
338
339
339
339
339
341
340
340
341
341
340
341
340
340
339
340
339
339
339
338
340
338
339
339
339
340
340
340
340
340
340
340
339
340
339
339
340
339
339
339
339
340
340
341
341
341
341
341
341
341
340
340
340
339
339
339
339
339
339
339
340
340
340
341
341
341
342
342
341
341
341
341
340
340
340
340
340
340
341
341
340
341
342
342
342
342
342
342
341
341
341
340
340
340
339
339
339
339
339
340
341
341
341
341
342
342
342
342
342
341
342
341
340
340
340
339
340
339
339
339
339
340
340
341
341
341
341
341
341
341
341
340
340
339
339
339
339
339
339
340
340
341
341
341
341
342
341
342
341
341
341
341
340
340
340
339
339
339
340
340
340
341
341
341
341
341
342
341
341
341
340
340
340
340
340
340
340
339
339
339
339
340
340
340
341
341
341
341
341
341
341
340
340
340
340
340
340
340
340
340
340
339
340
340
340
340
341
341
341
341
341
341
341
341
341
341
341
341
341
342
342
342
343
342
343
343
343
343
342
342
341
341
340
340
339
339
339
339
339
339
339
340
341
341
342
342
342
343
343
343
343
343
343
342
342
341
341
341
341
342
342
342
342
342
343
343
344
343
344
343
343
343
342
342
341
341
341
341
341
341
341
342
342
342
343
342
343
343
342
342
342
341
341
340
340
340
339
339
340
340
340
341
342
343
344
345
345
346
346
347
347
347
347
347
346
347
346
346
346
346
345
345
345
346
346
347
346
347
346
346
346
345
345
345
344
344
344
344
344
345
345
346
345
345
347
347
346
347
346
346
345
345
344
344
344
345
345
346
347
347
348
348
348
347
347
347
348
346
345
345
344
344
344
344
344
344
344
344
344
344
345
345
345
346
346
346
347
346
346
345
344
343
341
341
340
339
338
338
338
338
338
338
339
339
339
340
340
341
341
341
341
341
341
340
340
340
340
340
341
340
341
341
343
343
342
342
343
343
342
342
341
341
341
341
341
340
341
341
341
341
342
342
343
343
343
343
343
343
343
343
342
342
341
341
340
340
340
340
340
341
342
343
344
345
347
348
350
352
353
355
356
359
361
363
365
367
370
372
375
378
380
383
385
387
390
392
394
396
398
399
400
400
400
399
397
396
393
390
384
381
377
373
368
364
358
353
347
343
339
334
330
325
321
317
315
312
310
308
306
306
306
306
306
307
307
308
310
311
313
314
316
317
318
320
321
322
323
324
326
327
328
330
332
333
334
335
336
337
337
338
338
338
338
338
338
338
338
338
339
338
339
339
339
339
340
339
340
339
340
340
340
339
340
339
339
337
338
338
338
338
338
338
338
340
339
340
340
340
341
341
342
343
343
344
344
345
345
345
344
344
345
344
344
344
344
344
344
344
344
344
344
343
343
343
342
342
343
342
342
343
343
343
343
343
343
343
343
343
343
343
343
343
343
343
342
342
342
343
342
342
342
343
343
344
344
344
345
344
345
344
343
344
343
342
342
342
342
343
343
344
345
346
348
347
348
348
349
349
350
349
348
348
347
347
347
346
346
346
346
347
347
347
348
348
348
348
348
348
348
347
347
347
346
346
345
345
345
345
346
346
347
348
349
350
351
352
353
353
353
353
352
351
351
351
350
349
350
350
350
350
349
351
350
350
351
352
352
351
351
351
351
350
349
349
348
347
345
345
344
344
343
343
343
343
343
344
343
343
344
344
344
345
343
344
343
344
343
343
343
343
343
343
342
342
341
340
340
339
339
339
339
339
339
338
338
338
338
338
338
338
338
338
338
337
337
336
336
336
335
335
334
334
334
334
335
335
334
335
335
336
337
335
336
337
336
336
336
336
335
336
335
335
335
335
334
335
334
335
334
335
335
335
336
336
336
338
336
336
336
335
335
335
335
334
334
334
334
335
334
334
334
335
335
335
336
336
336
337
337
337
337
337
336
336
336
336
335
335
335
335
335
336
336
336
336
337
337
337
338
338
337
337
338
338
337
337
337
337
336
336
337
337
337
337
337
337
337
337
337
337
336
337
336
336
336
336
336
336
336
336
337
337
337
338
338
338
338
339
339
338
338
338
337
337
337
337
337
337
337
337
337
337
338
338
339
339
340
340
340
339
339
338
338
338
338
337
337
337
336
336
337
337
338
338
339
339
339
340
339
340
340
340
339
339
339
338
337
338
337
337
338
337
338
338
339
340
340
340
340
340
340
340
339
339
338
338
338
337
338
338
338
338
339
339
339
339
339
339
339
339
339
339
338
338
338
338
338
338
338
338
338
338
338
339
339
339
339
339
339
339
340
338
338
337
337
337
336
337
337
337
338
338
339
339
340
340
340
340
342
341
340
339
340
340
339
339
338
338
339
338
339
339
339
339
340
340
340
340
340
341
340
340
339
339
339
338
338
338
338
338
338
338
339
339
340
342
341
341
343
341
341
341
341
340
340
340
339
340
340
340
339
339
339
340
340
340
340
340
340
340
340
340
340
340
340
340
340
341
340
341
341
341
343
342
342
343
343
342
342
341
340
340
339
339
340
338
338
338
339
339
339
340
341
341
342
342
342
342
342
342
342
342
342
341
341
340
340
340
341
340
340
341
341
341
341
342
342
342
342
342
341
342
341
341
340
340
340
340
340
340
340
340
341
341
341
342
342
342
342
342
342
342
342
341
340
341
341
340
339
341
341
340
341
341
341
342
342
343
342
343
342
343
341
340
340
340
339
339
339
340
339
340
340
341
341
342
342
342
343
342
342
342
341
340
340
339
339
339
340
340
339
340
340
341
341
341
341
341
341
341
341
341
340
341
342
340
341
340
340
340
340
340
341
341
342
342
342
342
343
343
342
341
341
340
340
339
339
339
339
339
339
339
339
340
342
341
341
341
341
342
341
341
341
341
340
340
339
339
339
339
340
340
340
341
341
342
342
342
343
343
343
342
342
341
341
341
341
341
341
341
342
342
343
344
345
346
346
347
347
347
348
348
347
348
347
347
346
346
346
346
347
347
348
348
348
347
348
348
348
347
346
346
346
345
345
344
344
344
344
344
344
345
345
345
346
346
346
346
346
346
345
345
345
345
345
345
345
346
347
348
349
349
349
349
349
349
349
348
347
347
346
345
345
345
344
344
344
344
344
344
345
345
345
346
346
346
346
346
346
345
344
343
342
341
341
340
340
339
339
338
340
340
340
339
341
341
341
341
342
341
341
341
340
340
339
340
339
339
339
339
339
339
339
340
340
340
341
341
341
341
341
341
341
340
340
340
340
340
340
340
340
340
341
341
341
341
342
342
342
342
342
342
341
341
341
340
340
340
340
340
341
341
343
343
344
346
347
349
351
352
354
356
358
361
364
366
368
371
374
376
378
380
383
386
388
390
393
395
397
399
400
401
404
402
401
400
398
396
392
389
385
381
376
371
366
361
356
350
345
340
335
331
326
322
320
315
314
311
309
308
307
307
307
307
307
307
308
309
310
312
312
314
315
316
318
319
320
322
323
324
326
327
329
331
332
333
334
334
335
336
336
337
338
338
337
338
338
338
338
338
339
338
338
338
338
338
338
338
337
337
337
337
337
337
336
337
337
337
337
338
338
338
338
339
339
339
339
339
339
339
339
340
341
341
341
342
342
343
343
344
344
345
345
345
345
345
345
344
344
344
343
343
343
342
341
341
341
340
341
341
341
342
342
343
344
344
345
346
345
345
345
345
345
344
344
344
344
343
343
343
343
343
343
343
343
343
344
344
344
343
343
343
342
342
342
341
341
341
343
343
344
345
346
347
348
348
349
349
351
349
349
349
348
348
347
347
347
347
346
346
346
347
347
347
347
347
347
348
348
348
347
347
346
346
345
345
345
345
345
347
347
348
349
351
352
351
353
353
353
352
352
352
351
351
351
350
349
349
349
349
349
349
350
350
351
351
351
351
351
351
350
350
350
350
349
348
347
346
345
345
344
344
344
344
344
344
344
346
345
345
345
344
344
344
344
343
344
343
344
344
344
344
344
343
343
343
342
342
341
341
340
340
340
340
340
339
339
338
339
339
339
340
340
339
338
338
338
337
337
336
335
335
335
334
334
334
335
335
335
336
336
337
337
338
338
338
338
338
337
337
336
336
336
335
335
335
335
335
335
335
336
336
336
336
336
337
337
337
337
337
337
336
337
336
337
336
336
336
336
336
336
336
337
337
337
337
337
338
338
337
338
338
338
336
337
337
337
335
336
336
336
336
336
337
337
337
337
337
338
338
338
337
337
337
336
336
336
336
336
336
336
336
336
337
337
337
338
338
338
338
337
337
337
337
337
337
337
337
337
337
337
337
337
338
338
339
339
339
339
339
338
337
338
337
337
337
336
336
336
336
337
336
337
337
338
338
338
338
338
338
339
337
338
337
336
335
336
335
335
336
335
336
337
337
337
338
338
339
339
339
339
338
338
338
337
337
336
337
336
336
336
338
337
337
337
337
338
338
338
338
339
339
338
337
337
337
337
337
337
337
337
338
338
339
340
340
340
340
341
342
341
340
340
339
339
339
338
338
338
338
338
338
339
340
339
339
341
339
339
339
340
339
339
340
339
339
338
339
338
338
339
339
340
340
340
341
341
341
341
341
340
340
340
340
339
339
338
338
338
339
339
339
340
340
340
341
341
340
341
341
342
340
340
339
339
339
339
339
338
339
339
339
339
340
340
340
340
340
341
340
340
340
339
339
339
339
339
339
339
339
340
340
340
340
341
341
341
340
341
340
340
340
339
339
339
340
339
339
339
339
340
340
341
341
341
343
342
342
342
342
341
341
340
340
339
339
339
339
339
339
339
339
339
339
340
340
340
341
341
341
340
340
340
340
339
339
339
338
338
339
338
339
339
339
340
340
340
341
341
342
341
341
341
341
340
340
339
340
340
340
340
341
341
341
341
342
341
341
341
341
341
340
340
340
340
339
339
339
340
340
340
340
341
341
341
341
342
342
343
342
341
341
341
341
341
341
341
341
341
341
342
342
342
342
343
343
343
343
343
343
344
342
341
341
341
340
340
340
340
341
340
341
341
341
341
342
342
342
342
342
342
342
342
342
340
341
341
340
340
339
340
340
341
341
342
342
342
342
342
342
342
341
341
340
340
340
340
339
340
340
340
340
341
341
341
341
341
343
342
342
342
342
342
342
342
340
340
340
339
340
340
341
341
341
342
342
342
342
343
343
343
343
343
342
342
342
341
341
341
341
341
341
342
342
342
344
346
345
346
347
348
348
347
348
348
347
347
348
347
347
347
348
348
348
348
348
349
348
348
348
347
346
346
345
345
345
345
345
345
346
346
346
347
347
347
347
348
348
348
347
347
347
346
346
345
345
345
345
346
347
348
348
349
350
349
349
349
349
348
347
346
346
345
344
344
344
344
344
344
345
346
345
347
348
348
347
347
348
348
347
346
345
343
342
342
340
339
339
338
338
339
339
339
340
340
341
340
342
341
341
340
340
340
339
339
339
339
339
339
339
339
339
340
340
341
341
342
342
342
342
341
341
341
340
340
339
339
339
339
339
340
340
340
341
341
341
342
342
342
342
342
342
341
341
341
340
341
341
341
340
340
342
342
342
343
344
345
346
347
349
350
352
354
356
359
361
364
367
369
372
375
378
381
383
385
389
390
392
394
397
397
398
399
400
400
399
398
396
394
391
389
384
380
376
371
366
361
356
350
345
340
335
330
326
322
319
315
314
310
309
308
308
306
306
306
306
306
307
308
309
310
312
313
315
317
318
319
320
321
323
325
326
327
329
330
332
333
334
334
335
335
336
336
336
336
337
337
337
337
338
338
338
339
338
338
338
338
338
338
338
338
337
337
337
337
337
336
337
336
337
337
338
338
339
339
340
339
340
340
339
340
340
339
340
340
341
341
342
343
343
343
344
344
345
345
345
345
345
345
344
344
344
344
344
343
343
343
342
342
342
342
342
344
345
343
343
344
344
344
344
344
343
343
343
343
342
343
342
342
342
342
342
342
342
343
343
343
343
343
343
343
342
342
342
342
341
341
341
341
342
343
344
345
346
347
348
349
349
350
349
349
348
348
347
347
346
346
346
346
346
345
346
347
347
347
347
348
348
347
347
348
347
346
346
345
345
345
346
345
345
346
347
348
349
350
350
351
352
352
352
352
352
351
351
350
350
350
349
349
349
349
349
350
350
350
350
351
351
351
350
350
350
349
349
349
348
347
346
346
345
345
344
345
345
345
345
345
345
346
346
346
345
345
345
345
344
344
344
344
344
345
346
345
345
345
345
343
342
341
340
340
339
338
337
337
337
337
337
338
338
338
338
339
339
339
338
338
338
337
336
335
335
334
333
333
333
332
332
332
333
333
333
335
335
335
336
336
336
336
336
336
335
335
335
335
335
336
335
335
335
335
336
336
336
337
337
337
338
338
337
338
337
336
337
336
336
336
336
337
338
336
336
337
337
338
338
338
338
339
339
338
338
338
338
337
337
336
336
336
336
336
336
337
338
338
338
338
338
338
338
338
337
337
336
336
336
336
336
336
336
336
337
337
337
338
339
339
339
339
340
339
339
339
339
338
338
337
337
337
337
337
337
337
337
338
338
337
338
339
338
338
338
339
337
337
338
338
338
338
339
338
339
339
339
339
340
340
339
339
339
339
338
338
338
338
337
337
337
337
337
337
337
337
338
338
338
339
339
339
339
339
339
339
338
338
337
337
337
337
337
337
338
338
338
338
339
339
339
339
339
339
339
339
339
338
337
337
337
337
336
337
337
338
337
338
338
340
339
339
340
340
339
339
339
338
338
338
339
337
337
338
339
338
338
339
339
339
340
340
340
340
339
340
339
338
338
338
338
338
338
339
339
339
340
340
340
340
340
340
340
339
339
338
338
338
338
338
338
338
338
338
338
339
339
339
339
339
339
340
339
339
339
339
339
339
339
338
338
338
338
339
338
339
339
339
340
339
340
340
340
339
340
339
339
338
339
338
338
338
338
339
339
339
339
339
340
340
340
340
340
339
338
338
338
338
338
338
338
338
338
338
339
339
339
340
340
340
340
340
340
340
339
339
338
338
338
337
337
338
338
339
338
339
339
340
340
340
340
340
340
339
339
339
338
338
337
337
336
337
336
337
337
337
338
339
339
339
340
340
340
340
340
340
339
339
339
338
339
339
339
339
339
339
339
339
340
340
340
340
340
340
340
340
339
339
339
339
339
339
339
339
339
340
340
340
341
341
341
341
341
341
341
340
340
340
340
340
340
340
340
340
340
340
341
341
341
342
342
342
341
341
341
341
340
340
339
339
339
339
339
339
339
339
340
340
341
341
341
341
341
341
341
341
341
341
341
341
341
341
340
340
341
341
341
341
341
342
342
342
341
342
342
342
341
340
341
341
340
340
341
341
341
341
341
342
343
342
342
342
342
342
341
341
342
340
340
340
340
340
340
341
341
342
342
342
343
343
343
343
342
342
342
342
342
342
341
341
341
341
341
340
341
341
341
342
342
343
344
344
345
345
345
346
346
346
346
346
345
346
345
346
346
347
346
348
348
348
346
348
347
346
346
345
345
345
345
344
344
345
345
345
345
346
346
348
347
347
347
347
347
347
346
346
346
346
347
344
344
345
347
346
347
348
349
349
349
349
348
347
347
346
345
345
344
344
344
344
343
343
344
344
344
345
345
346
346
347
347
347
347
347
346
346
345
344
344
343
342
342
342
341
340
341
341
341
341
342
341
341
341
340
340
339
339
339
339
340
340
340
340
341
341
342
342
343
343
343
343
343
343
342
342
342
341
340
340
340
340
339
339
340
341
340
341
341
341
342
342
342
341
341
341
341
341
341
341
340
340
340
341
341
341
342
343
344
345
346
347
348
349
350
351
353
354
356
358
362
364
366
369
372
375
377
380
382
385
387
388
390
392
395
396
397
398
399
399
399
399
397
396
393
390
387
383
380
375
371
366
361
356
350
345
340
335
331
326
322
319
315
313
311
309
308
308
307
307
308
308
308
309
310
311
312
313
314
315
317
318
319
321
322
324
325
327
329
331
332
334
334
336
336
336
335
336
337
337
336
337
337
337
338
339
339
339
340
340
340
340
340
339
339
340
338
339
338
338
339
338
337
338
338
339
339
340
340
341
340
340
340
340
340
339
339
340
340
341
341
342
343
343
344
344
344
344
344
344
344
344
344
344
344
344
343
344
343
343
343
344
343
343
343
344
344
345
345
345
344
344
345
345
344
344
345
343
343
342
341
341
342
342
342
343
343
343
344
344
344
344
344
344
344
343
343
342
342
341
341
341
342
342
342
343
345
345
347
348
348
349
349
349
349
349
348
348
347
347
346
346
346
345
345
346
347
347
347
348
348
348
348
348
348
348
348
347
347
347
346
346
347
347
347
348
348
348
350
351
351
352
352
352
352
352
351
351
350
351
351
350
350
350
351
351
351
351
351
351
351
351
351
351
351
351
351
350
350
349
348
348
347
346
346
346
345
345
345
345
345
346
346
346
346
345
345
345
345
345
345
345
345
345
345
345
345
345
345
345
344
343
342
341
340
340
339
338
338
339
339
338
340
340
340
340
341
340
340
339
339
337
337
336
335
334
334
334
334
333
333
333
334
334
335
335
335
336
336
337
337
337
337
336
336
335
335
335
334
334
334
333
334
333
333
334
334
334
335
335
336
336
337
337
337
336
336
336
336
335
335
336
335
337
335
336
336
336
336
336
336
336
337
337
337
336
337
337
337
335
336
335
335
335
335
335
335
337
336
336
336
337
337
337
337
336
336
336
336
335
335
335
335
335
336
336
337
337
338
338
338
338
338
339
338
338
337
337
336
336
336
336
336
336
336
337
337
337
338
338
338
338
338
338
338
338
338
337
337
336
337
336
336
336
337
337
337
338
338
338
337
337
338
337
338
338
337
336
337
336
335
336
337
335
336
337
337
337
337
338
338
337
338
338
338
337
337
337
336
337
337
337
337
336
336
337
337
337
337
338
338
338
338
337
338
337
337
336
336
336
336
336
336
336
336
337
337
338
337
337
338
340
339
339
338
338
338
337
337
336
336
337
337
337
338
338
339
339
339
341
340
340
341
341
341
339
339
338
338
338
337
338
337
338
338
338
339
339
339
340
340
340
341
340
340
339
339
339
338
338
338
338
338
338
338
339
339
339
339
339
339
340
339
339
339
338
338
337
337
338
337
337
337
337
338
338
338
339
339
340
340
340
340
341
340
339
339
338
338
338
339
338
340
340
339
339
341
341
341
342
341
341
341
340
340
339
339
339
338
338
338
338
338
338
338
339
339
340
340
340
340
340
340
340
339
339
339
339
339
339
338
338
338
338
338
338
339
339
340
340
340
340
340
340
340
340
340
340
340
339
339
340
340
339
339
340
340
340
341
341
341
341
342
341
341
341
341
341
340
341
341
341
340
341
341
341
341
341
341
342
341
341
341
341
340
340
339
339
339
339
339
339
339
339
340
340
340
340
341
341
341
341
341
341
341
340
340
339
339
339
339
339
339
340
340
341
341
341
342
342
342
343
343
342
343
342
343
342
341
341
341
341
340
341
341
341
341
341
342
342
342
343
342
342
342
342
340
340
341
340
339
340
340
339
340
341
340
340
341
341
341
341
342
341
341
341
340
340
340
339
339
339
339
339
339
340
340
340
341
341
341
341
341
341
341
341
341
341
340
340
339
340
340
340
340
341
341
341
341
342
342
342
342
342
342
342
341
341
340
341
340
341
341
340
341
341
341
342
342
342
342
343
345
344
344
344
345
345
346
346
346
346
346
346
346
347
346
347
347
347
347
348
347
347
346
346
346
345
345
345
345
345
345
345
346
346
347
347
348
347
348
347
347
347
347
347
345
345
345
344
344
344
344
345
345
346
348
349
350
350
350
349
349
348
347
346
345
344
343
343
343
343
343
343
344
344
344
344
344
346
346
345
345
345
344
344
343
343
342
341
341
340
340
340
339
340
340
340
340
341
341
341
341
341
341
341
340
340
340
340
340
340
340
341
341
341
342
342
342
342
342
342
342
341
341
341
341
340
340
340
340
340
342
342
341
341
342
342
342
342
342
342
341
341
340
340
340
339
340
340
340
339
339
340
340
340
340
341
342
342
343
344
344
346
346
347
348
350
352
354
356
359
362
364
367
370
373
376
379
382
384
386
388
391
393
395
397
398
400
401
401
402
401
400
398
395
392
389
385
381
376
371
366
361
356
350
345
340
335
331
326
323
319
316
313
311
310
309
307
307
306
306
306
306
307
308
310
312
314
314
316
318
319
321
322
324
325
327
328
330
331
333
334
335
335
336
335
335
336
336
336
337
337
338
338
339
340
340
340
341
341
341
341
341
340
340
340
339
339
338
338
337
338
337
338
338
339
338
338
339
339
339
339
339
339
339
339
339
339
340
341
342
343
343
344
344
345
346
345
345
346
346
345
345
345
345
344
344
343
342
342
342
342
342
342
343
343
343
343
344
344
345
344
344
344
344
344
344
343
343
342
342
342
342
342
342
343
343
342
343
343
343
344
344
343
343
343
342
342
342
341
342
341
341
342
342
343
344
345
347
347
349
348
349
349
348
348
347
347
347
346
346
346
346
346
347
346
348
346
348
347
348
347
347
347
347
347
346
346
345
345
345
345
345
345
345
345
346
347
348
349
350
350
351
351
351
351
352
351
350
350
350
349
349
350
350
350
350
352
351
351
351
351
351
351
351
350
350
350
349
349
348
348
347
347
346
346
346
345
345
345
345
345
345
344
344
344
343
343
344
343
344
344
344
343
344
344
344
344
344
343
343
342
341
340
339
339
339
337
337
337
338
337
337
338
339
339
340
340
341
340
340
339
338
337
336
335
335
334
334
333
333
333
334
334
335
335
335
336
337
337
338
338
338
338
338
337
337
337
337
336
336
336
336
335
336
336
336
337
337
337
338
338
338
338
338
338
337
337
337
337
337
336
337
337
337
337
337
337
337
337
337
337
337
337
336
336
336
336
335
335
335
335
335
336
336
336
337
338
338
338
339
338
339
338
338
338
337
337
336
336
335
335
336
335
337
336
337
337
338
338
339
339
339
338
339
337
337
337
336
336
336
337
337
337
337
338
338
338
338
339
339
339
340
340
338
338
337
337
337
336
336
336
336
338
337
337
337
338
337
338
338
338
338
337
337
337
337
337
337
337
336
336
336
336
338
337
338
338
339
339
339
339
339
339
338
338
338
337
337
337
337
336
337
337
337
337
337
338
337
338
338
338
338
338
338
338
338
338
338
338
338
338
338
338
338
339
340
340
339
339
340
340
339
339
338
338
338
337
337
337
337
337
337
337
338
338
339
339
339
339
340
339
339
339
339
339
339
339
340
339
338
338
338
339
339
339
339
339
339
339
340
339
339
339
339
339
338
338
338
338
338
338
338
338
338
339
339
340
341
341
342
342
342
342
340
340
340
339
339
338
339
338
338
338
339
340
339
339
341
341
340
341
341
341
341
341
340
340
340
339
340
339
339
339
340
340
340
340
340
341
341
341
341
341
340
340
340
339
339
339
339
339
339
340
341
340
341
341
342
341
341
341
341
341
341
340
340
340
340
339
339
339
339
340
340
341
341
341
341
342
342
342
342
342
342
341
341
340
340
340
339
340
340
340
340
341
341
341
341
342
341
341
342
341
341
340
341
340
340
340
340
339
340
340
340
340
341
341
342
342
342
341
342
341
341
340
340
340
339
339
339
339
339
339
340
340
340
340
341
341
341
342
341
341
341
340
340
340
340
339
339
340
340
340
341
341
341
342
342
342
342
342
342
341
341
342
341
340
340
341
341
340
341
341
341
341
341
342
341
342
342
341
341
341
341
341
341
340
340
339
339
339
340
340
340
341
341
341
342
342
342
342
342
341
341
341
339
339
339
339
339
339
339
339
340
340
341
342
342
342
342
342
342
342
341
341
340
340
339
339
339
339
339
339
339
340
341
341
341
342
343
342
342
343
342
341
341
340
341
340
340
340
341
341
342
341
342
343
343
342
343
343
343
344
344
344
344
344
345
346
346
346
346
346
346
346
346
346
346
346
346
346
346
345
345
345
345
345
344
344
344
344
345
345
345
346
346
346
346
346
347
347
347
346
346
345
345
345
345
344
343
344
344
345
345
346
348
350
350
350
350
351
350
348
348
347
346
345
345
344
344
344
344
344
345
345
346
346
346
347
346
346
347
346
346
345
345
344
343
342
342
343
341
341
341
341
341
341
342
341
341
341
341
341
341
340
340
340
340
340
340
340
340
341
341
341
341
342
342
342
342
341
341
341
341
340
340
339
339
339
339
340
339
340
341
342
342
341
342
342
342
342
342
342
341
341
341
340
340
340
340
340
340
340
340
340
341
341
342
343
344
344
345
346
346
347
348
349
351
353
355
357
360
363
365
369
371
375
377
380
383
385
387
390
392
393
395
397
398
399
399
400
399
399
397
395
392
388
385
381
377
372
367
362
357
352
345
340
336
332
327
323
321
317
314
312
310
308
307
306
305
304
304
304
305
305
306
308
309
311
313
314
316
318
320
322
323
326
327
328
330
331
332
333
333
333
334
333
334
335
335
335
336
337
338
338
339
339
340
340
340
340
340
340
339
339
338
337
338
337
337
338
338
338
339
339
339
340
340
340
340
340
341
341
339
340
340
340
339
340
342
342
343
343
343
344
345
345
345
345
346
346
345
345
345
344
344
343
344
343
342
343
342
342
342
343
343
343
344
344
345
344
345
344
345
343
343
343
342
342
342
342
341
342
342
342
343
343
343
344
344
344
346
344
344
343
343
342
342
342
341
341
341
342
342
344
344
345
346
347
348
349
348
348
348
348
347
348
346
346
346
347
345
347
346
346
347
347
347
347
348
348
348
347
347
347
346
346
346
347
346
346
346
346
347
346
346
347
347
348
349
350
351
351
351
351
351
351
351
350
350
350
350
350
350
350
350
350
350
351
351
351
350
350
350
350
349
349
350
348
349
348
348
347
348
347
346
346
345
346
345
345
344
344
344
343
343
342
343
342
342
342
342
343
344
344
344
345
346
346
346
346
344
343
342
341
340
339
338
338
337
337
337
338
338
339
340
340
340
340
340
339
338
337
336
335
334
333
333
333
333
333
333
334
334
335
336
336
336
336
336
336
336
336
335
335
334
335
334
333
333
334
335
334
335
336
336
336
338
337
338
338
338
338
337
338
337
336
336
335
335
335
335
335
335
336
336
336
336
336
337
336
336
337
335
335
335
334
334
333
333
333
333
334
334
335
335
336
336
337
337
337
337
337
336
336
335
334
334
334
334
334
334
334
335
335
336
336
336
336
337
337
337
337
337
338
337
336
335
335
336
335
336
336
336
336
337
337
338
338
338
338
338
338
337
337
337
337
337
336
336
337
337
336
336
336
337
336
337
337
337
337
337
337
337
337
337
336
335
335
336
335
335
336
337
337
337
338
339
339
340
340
340
339
339
338
338
338
337
337
337
337
337
338
338
338
338
339
339
340
340
340
339
339
339
339
338
338
338
338
338
338
338
338
339
339
339
339
339
339
340
339
339
339
339
339
338
338
338
338
338
338
338
339
339
339
339
340
340
340
340
339
340
339
339
339
338
338
338
338
338
338
339
339
339
340
340
340
341
341
341
341
340
340
340
339
339
338
338
337
337
337
338
338
338
339
339
339
340
340
341
340
340
340
339
339
338
338
338
338
337
338
338
338
339
339
339
340
340
340
341
340
340
340
340
340
339
339
339
338
339
339
339
339
340
339
339
340
340
340
340
340
340
340
339
339
338
338
338
337
338
337
338
338
338
339
340
340
340
340
340
340
340
340
339
339
339
339
339
339
339
338
338
338
338
339
339
339
339
339
339
339
339
339
340
339
339
339
339
339
340
340
340
340
340
340
341
341
341
342
342
341
340
340
340
339
340
340
340
338
339
340
340
340
340
341
341
342
342
342
342
342
341
341
341
340
340
339
339
340
338
338
339
339
339
339
340
340
340
341
341
341
341
341
340
341
340
339
339
339
339
339
339
339
340
340
341
341
342
342
342
342
343
342
342
342
341
341
341
340
340
340
340
340
341
341
341
342
342
342
342
342
342
341
341
342
342
340
340
341
341
340
340
340
340
341
341
341
342
343
343
343
343
342
342
341
341
341
341
340
341
340
341
341
341
342
341
342
343
343
343
343
342
342
342
342
341
341
340
339
339
339
339
339
340
341
341
341
342
342
342
342
342
342
341
341
341
340
340
340
340
340
340
340
340
340
341
342
342
343
342
343
343
342
343
343
343
344
343
344
344
344
344
345
345
345
345
345
345
345
345
345
345
345
345
344
346
344
344
344
344
344
344
344
345
345
346
346
346
346
347
347
346
346
345
346
345
344
344
344
343
344
345
344
344
345
347
349
349
350
351
351
350
350
349
348
347
346
345
345
344
344
345
346
345
347
346
347
347
348
348
348
347
347
347
347
347
346
345
345
344
343
343
341
341
341
341
341
341
341
341
341
341
341
341
341
340
340
340
340
339
339
339
340
340
341
341
341
341
341
341
341
341
341
340
340
340
339
339
339
340
340
340
340
341
341
341
342
342
342
342
342
341
341
341
340
340
340
339
340
340
340
339
340
340
340
340
341
341
341
342
342
343
343
344
345
345
347
349
350
352
355
357
360
363
365
368
371
373
376
379
381
383
385
387
389
391
393
395
396
398
399
399
399
399
397
396
393
390
387
383
378
374
369
364
359
353
348
343
338
334
329
325
322
318
316
313
312
310
309
308
307
307
306
306
307
307
309
310
312
312
314
316
317
319
321
322
324
326
327
329
330
332
333
333
333
334
334
334
334
335
335
336
336
337
337
338
339
339
339
339
339
339
338
338
337
337
336
337
336
337
337
337
338
338
338
339
339
339
339
339
339
339
338
339
337
337
336
336
337
338
339
339
340
342
343
345
344
345
345
345
345
346
346
344
344
344
343
342
343
342
342
342
342
342
343
343
344
344
344
345
345
345
345
344
344
343
344
342
342
342
342
342
343
343
343
343
344
344
344
344
344
344
344
343
343
343
342
342
341
341
341
341
341
341
341
342
342
343
344
345
347
347
347
347
347
348
348
348
347
347
347
347
347
348
348
347
348
349
349
349
348
348
348
347
347
346
346
345
346
345
345
345
345
345
346
347
346
347
347
348
349
349
350
351
350
350
350
350
350
350
350
350
350
350
350
351
350
351
351
351
351
351
351
351
350
350
349
349
349
349
348
348
348
348
347
347
346
345
345
345
345
344
344
343
343
343
342
342
342
343
342
344
344
344
344
345
346
346
346
345
345
345
344
342
341
340
340
339
338
337
338
338
338
338
339
339
339
340
340
340
340
340
339
338
337
336
335
334
334
334
333
333
333
333
334
334
335
335
336
336
336
336
336
336
336
335
335
335
335
335
335
335
335
336
336
336
336
337
337
337
337
337
338
338
337
338
337
337
336
337
337
337
336
338
337
337
337
337
337
337
337
336
336
336
336
335
335
335
336
336
336
336
337
337
337
338
338
338
338
338
338
338
337
337
338
336
335
335
335
335
335
336
336
336
337
337
338
338
339
339
339
339
338
338
338
337
337
337
336
336
336
336
336
337
337
338
338
338
338
338
339
338
337
338
338
336
336
336
336
335
335
335
335
335
336
336
337
337
338
338
338
338
338
337
337
337
338
337
337
337
337
338
338
338
339
339
339
340
340
340
340
340
340
339
339
338
338
337
337
337
337
337
337
337
337
338
338
339
339
339
339
339
338
339
338
337
337
337
336
336
336
336
336
337
338
338
338
339
340
339
340
340
339
338
338
337
337
337
337
337
336
337
337
337
337
338
338
338
339
339
339
339
339
339
339
338
338
338
338
338
338
338
337
337
337
338
338
338
338
338
339
339
339
338
339
338
337
337
337
337
337
337
337
337
337
338
338
338
338
338
338
339
338
338
338
338
338
338
337
337
338
338
338
338
338
340
340
339
340
339
340
340
340
339
339
339
338
337
337
337
338
337
337
338
338
339
340
340
340
340
341
342
340
340
340
340
339
339
339
339
339
339
339
339
339
340
340
340
340
340
339
339
339
338
338
338
338
337
337
337
337
337
337
337
338
339
339
339
339
340
340
339
340
339
339
338
339
338
338
339
339
338
339
340
340
339
340
340
340
340
340
340
340
340
340
339
339
339
339
339
339
339
340
339
340
340
340
340
341
341
341
341
340
340
340
339
339
339
339
339
339
340
340
341
340
340
340
341
341
341
341
342
342
342
342
341
341
341
341
340
340
340
340
340
340
340
341
341
341
341
341
341
341
341
340
340
340
340
339
339
340
340
340
340
341
341
341
342
342
341
341
341
341
340
340
340
340
340
340
340
340
340
340
340
340
340
341
341
341
341
341
341
341
341
341
340
340
340
339
340
340
340
340
341
341
341
342
342
342
342
342
342
342
342
341
340
340
340
339
339
339
339
339
339
340
340
340
342
342
342
343
343
342
342
342
342
341
341
341
340
340
340
341
340
341
340
340
341
342
341
341
341
341
342
342
343
343
344
344
345
346
346
347
347
348
348
348
347
347
347
346
346
346
346
345
345
344
344
344
345
344
344
344
344
345
345
345
346
346
346
346
346
346
346
346
345
345
345
345
344
344
344
345
346
346
347
347
349
350
350
350
351
350
349
349
348
347
346
345
344
343
343
344
343
344
344
344
344
345
345
345
345
345
345
345
345
344
344
344
343
342
341
341
340
340
340
340
340
340
340
342
341
341
341
341
341
341
341
340
340
340
340
340
340
340
341
341
341
341
342
341
341
341
341
341
340
340
340
340
340
339
339
339
341
340
341
342
342
342
342
342
341
341
341
341
340
340
340
340
339
340
340
341
341
341
342
342
342
342
342
342
343
344
344
345
345
346
347
348
350
352
354
357
360
363
365
368
371
374
376
379
381
383
385
387
389
391
393
396
396
398
399
401
400
400
399
397
395
392
388
384
380
376
371
366
360
356
349
344
339
336
331
327
323
320
318
314
312
311
309
308
307
306
306
306
305
306
307
308
309
311
313
314
316
318
321
322
324
326
327
328
329
331
332
332
333
333
334
334
334
335
335
336
337
338
339
339
340
340
340
340
339
340
339
338
338
338
337
337
337
337
337
337
337
337
338
338
339
340
340
340
340
340
340
340
339
339
338
340
339
339
340
341
342
343
344
344
345
347
345
346
346
345
345
344
344
343
343
343
343
343
342
343
343
344
344
344
345
345
345
345
345
345
344
344
343
343
343
342
342
342
342
342
342
342
342
343
343
343
343
343
343
343
342
342
342
341
341
341
341
341
341
341
341
342
342
342
344
344
345
346
347
348
347
348
347
347
347
347
346
346
346
346
346
346
347
347
347
347
347
347
347
347
346
346
345
345
345
344
345
344
343
344
344
344
344
345
345
346
346
348
347
348
349
349
350
350
350
350
350
350
350
350
350
350
350
350
350
350
350
350
349
349
349
349
348
348
348
348
348
347
348
349
347
348
347
346
346
346
346
346
345
345
344
344
344
344
344
344
343
343
344
343
343
343
345
344
344
345
345
345
345
344
343
343
341
340
340
339
338
338
337
337
338
338
339
339
339
340
340
339
339
339
338
337
336
336
334
334
333
333
333
333
333
334
334
335
335
335
336
336
336
336
335
335
335
334
334
333
334
334
334
335
335
334
334
335
336
336
336
337
337
337
337
336
336
335
336
335
334
334
334
335
335
335
335
336
336
336
336
337
336
335
335
335
334
334
334
334
334
334
334
334
334
335
335
336
336
336
337
337
337
337
337
337
336
336
335
335
335
335
335
335
336
336
337
337
338
338
338
338
338
338
338
337
337
337
336
336
335
335
336
336
336
337
337
337
337
338
338
338
338
338
338
338
337
337
337
336
336
337
337
337
338
337
338
338
338
338
338
338
338
338
338
338
337
337
336
336
336
336
336
336
336
336
337
337
337
338
338
338
338
338
337
338
337
337
337
337
336
336
337
337
337
338
338
338
339
339
340
340
340
339
340
340
339
337
337
337
337
336
336
337
337
337
339
338
337
338
338
338
338
338
338
338
338
338
337
337
337
337
337
337
337
338
338
338
338
338
338
339
339
338
338
338
337
337
336
336
336
336
336
337
336
336
337
337
338
338
338
338
338
338
338
338
338
338
338
338
338
338
338
337
338
338
338
338
339
340
340
338
339
339
339
338
338
338
337
337
337
337
337
338
337
338
338
339
339
339
339
339
339
338
338
338
337
337
337
337
337
337
337
337
337
338
338
339
340
339
340
340
340
339
339
339
338
338
338
337
337
337
337
337
337
338
338
339
339
339
340
340
340
340
339
339
339
339
338
338
338
338
339
340
339
339
340
341
340
342
341
342
341
341
340
339
339
339
338
338
338
338
338
339
339
339
339
340
340
340
340
341
340
340
340
340
340
340
340
339
339
339
339
339
339
339
340
340
341
341
341
341
341
342
341
341
340
340
340
339
339
339
339
339
339
339
340
340
340
341
341
341
340
340
340
340
340
340
339
339
339
339
338
338
339
340
340
340
341
340
341
341
341
341
341
340
340
340
340
339
339
339
339
339
340
340
341
341
342
341
341
341
342
341
341
341
340
339
339
339
340
339
339
339
340
339
340
340
341
341
341
341
341
341
341
341
341
341
340
340
340
340
340
340
341
340
341
341
342
342
342
343
343
344
343
342
343
343
343
342
341
341
341
342
342
342
342
343
343
343
343
344
344
343
343
342
342
342
342
342
342
341
342
342
342
342
342
342
343
343
343
343
343
343
342
342
342
342
343
343
344
344
345
345
345
345
346
346
346
346
346
346
346
346
346
346
345
345
345
345
345
345
345
345
346
346
346
346
346
347
347
347
348
348
346
347
346
346
344
345
344
344
345
344
345
345
346
346
347
348
349
350
350
351
350
349
348
347
346
345
345
344
344
343
343
343
344
344
345
345
346
346
346
346
346
346
346
345
345
345
345
344
344
343
343
343
342
342
342
342
342
341
341
341
341
341
340
340
340
340
340
340
340
340
340
341
341
341
341
342
343
342
341
342
342
341
340
340
339
339
339
339
339
339
339
340
340
340
340
340
340
341
340
340
340
340
340
339
339
340
340
340
340
340
340
341
341
341
342
342
342
342
342
343
344
344
345
345
346
347
349
350
352
354
357
359
362
365
367
370
373
375
377
380
382
384
386
388
390
392
395
396
398
400
402
401
401
401
400
397
394
391
387
382
378
372
367
362
356
351
345
341
336
333
329
326
322
320
317
315
313
311
310
309
308
307
306
306
306
307
308
309
310
312
314
316
318
320
322
324
326
327
328
330
331
332
332
333
333
334
333
334
334
335
336
337
338
338
339
339
340
340
340
340
340
339
339
339
339
337
337
338
338
337
337
338
338
338
338
338
339
339
339
339
340
339
338
338
337
337
337
337
338
339
340
341
342
343
344
345
345
345
345
345
345
345
344
344
344
344
343
343
343
343
343
344
344
344
344
344
344
344
344
344
344
344
344
344
343
343
342
342
342
342
342
343
343
343
344
343
344
345
344
343
344
344
343
342
343
342
342
342
342
342
341
342
342
343
343
343
344
344
345
346
346
346
347
346
346
347
347
346
346
346
346
346
347
347
347
347
347
347
347
347
347
347
346
347
346
346
346
346
346
346
346
346
346
347
347
347
347
348
348
348
349
349
350
350
350
350
351
351
351
351
352
352
352
352
353
352
352
352
352
352
350
351
350
349
349
349
349
348
348
349
349
349
349
349
349
349
349
348
347
347
346
345
345
344
344
344
343
343
343
343
344
344
344
345
345
345
346
346
346
345
345
344
343
342
341
339
338
338
338
338
338
338
339
339
340
340
340
340
340
340
339
338
337
336
335
335
334
333
333
334
333
335
335
335
335
335
336
336
336
336
336
336
336
336
335
335
335
334
335
334
335
334
335
336
336
336
336
336
336
335
335
334
334
334
334
334
334
334
334
334
334
335
336
336
336
337
337
338
337
337
336
336
336
335
335
334
334
335
335
335
335
335
336
336
336
337
337
337
337
337
337
337
336
336
336
336
335
335
335
335
335
335
336
336
336
337
337
337
337
337
336
336
335
335
334
334
334
334
334
334
335
335
336
336
337
337
337
337
337
337
337
337
336
336
336
336
336
336
337
337
337
337
337
338
338
338
337
338
337
337
337
337
337
336
336
336
336
336
336
337
337
337
338
338
339
339
339
339
339
339
339
338
338
337
337
337
336
336
337
337
337
338
338
338
339
339
339
339
339
339
339
338
338
338
337
337
337
337
337
337
337
338
338
338
339
339
339
339
339
339
339
338
338
338
337
337
337
337
337
337
337
338
338
338
338
338
338
338
338
338
337
337
337
336
336
336
336
336
336
336
336
337
337
338
338
338
339
339
339
339
339
339
339
338
338
338
338
338
337
337
338
338
338
339
339
339
339
339
339
339
339
338
338
338
337
338
338
338
338
338
338
339
339
340
341
341
341
342
342
342
341
341
341
340
340
340
339
339
339
339
340
340
342
341
341
341
341
342
342
342
342
341
341
340
340
339
339
339
339
339
339
339
340
340
341
341
341
342
342
342
341
341
340
340
340
340
339
339
339
340
340
340
340
341
341
341
341
341
340
340
340
340
340
339
339
339
339
339
339
340
339
340
341
341
341
342
342
341
341
341
340
340
340
339
339
339
339
339
339
339
340
341
340
341
341
341
341
341
340
341
341
341
340
340
340
339
339
339
339
339
339
340
340
340
341
341
341
341
340
340
340
340
340
340
339
339
339
339
338
339
339
339
339
340
340
341
341
341
342
342
341
342
341
340
340
340
340
340
339
340
340
340
339
340
341
341
341
341
341
341
341
341
340
340
341
341
341
341
341
341
341
341
341
341
341
342
342
342
342
341
341
341
340
340
340
339
339
339
339
339
339
339
340
340
340
341
341
341
341
341
341
341
341
340
340
340
340
340
340
340
339
339
340
340
341
341
341
341
342
342
341
341
341
341
339
340
340
339
339
339
339
340
340
340
341
341
341
341
342
341
341
341
341
341
341
342
343
344
344
345
346
347
347
348
348
348
349
349
349
348
348
347
347
346
346
345
345
345
345
345
345
345
345
346
346
346
347
347
347
347
346
346
346
345
345
345
344
344
344
344
344
344
345
346
346
346
348
349
350
349
351
350
350
349
348
347
347
346
345
344
344
344
344
344
344
344
345
345
346
346
346
346
346
345
345
344
344
344
344
344
343
342
342
342
341
341
340
340
339
339
339
339
339
339
339
338
338
338
339
339
339
339
339
340
340
340
341
341
341
341
341
340
340
340
340
340
341
339
340
339
340
340
340
340
341
342
342
341
341
341
341
341
340
340
340
340
339
339
339
339
339
339
340
340
340
340
340
340
340
341
341
342
342
343
343
344
345
346
348
350
352
355
358
361
363
367
369
371
374
376
379
381
383
385
387
389
391
393
395
397
398
400
400
400
400
399
397
394
391
387
383
379
374
369
364
359
354
348
343
340
336
331
328
324
321
317
315
313
311
309
307
306
305
304
304
304
305
305
307
308
310
312
314
316
319
320
322
324
325
326
327
328
329
330
330
331
331
332
332
333
334
335
336
337
338
338
339
339
339
339
339
338
338
337
337
337
336
336
336
336
337
337
338
338
338
338
338
338
338
338
338
337
338
337
336
336
337
337
336
337
338
339
340
341
342
343
343
344
344
344
344
344
343
343
342
342
341
341
341
341
342
342
342
342
342
342
343
343
343
343
343
343
342
342
341
341
341
341
341
341
341
342
342
342
342
343
343
343
343
343
343
342
342
341
341
341
341
341
341
341
341
342
342
342
343
343
343
344
344
346
347
347
346
347
347
347
347
347
347
346
346
347
346
346
347
347
347
347
348
347
347
347
347
346
346
346
345
345
345
345
345
345
346
346
346
346
346
346
346
346
347
347
347
348
349
349
349
349
349
350
350
350
351
351
351
351
351
351
351
351
350
349
349
348
348
348
347
347
347
348
348
348
348
349
349
348
347
346
347
346
344
344
344
342
342
341
341
341
342
341
342
342
343
343
344
344
345
344
345
345
345
344
344
343
342
341
340
339
338
337
337
337
337
337
338
338
338
339
339
339
339
339
339
338
337
335
334
334
333
333
333
333
333
334
334
335
335
335
335
335
336
335
335
335
334
334
334
334
334
334
334
334
336
336
335
337
337
337
336
337
336
335
335
335
335
335
335
335
335
335
335
335
336
336
336
336
336
337
336
336
336
336
335
335
334
334
334
334
334
334
335
335
335
335
337
335
336
336
336
336
336
336
336
336
336
335
335
335
336
336
336
336
336
337
337
337
337
337
338
337
337
337
337
336
336
337
337
336
336
338
338
337
337
338
338
338
338
337
337
337
337
336
335
336
335
335
335
336
336
336
336
337
337
338
338
338
338
338
338
338
338
337
337
336
336
336
336
336
336
337
337
337
338
338
339
339
339
339
339
339
339
338
339
338
337
337
337
337
337
337
337
338
339
339
339
339
339
339
339
340
339
339
340
340
339
338
339
339
338
338
337
338
338
339
340
339
339
339
339
339
339
339
338
338
338
338
337
337
337
337
337
338
338
339
339
340
340
340
341
340
340
340
341
339
339
338
338
338
338
338
338
338
339
339
339
339
339
339
339
340
339
339
339
339
339
338
338
338
338
338
338
338
338
339
339
340
340
340
341
339
340
340
340
338
339
339
339
338
339
339
339
339
340
340
340
340
340
340
340
341
340
340
340
339
339
338
338
338
338
338
338
340
339
340
340
340
340
341
341
341
341
341
341
340
340
339
339
339
339
339
339
339
339
340
340
340
341
341
341
341
341
340
341
339
339
339
339
338
338
338
339
340
339
339
341
341
340
341
342
342
341
340
340
339
339
339
338
338
338
339
339
339
340
341
341
342
342
342
342
341
341
341
340
340
340
339
339
339
339
339
340
340
341
341
342
342
342
343
342
342
342
341
340
340
340
339
339
339
339
340
340
340
340
340
341
341
341
341
341
341
341
341
340
340
340
340
339
340
339
340
339
340
341
342
341
341
342
341
341
341
341
340
341
340
340
340
340
340
340
340
341
340
341
341
341
341
342
342
342
342
342
342
341
341
340
340
340
340
340
339
340
340
340
341
341
341
342
342
342
342
342
342
341
341
341
340
340
340
340
340
340
340
341
341
341
341
342
342
342
341
341
341
341
341
340
341
341
341
340
340
341
341
341
341
342
341
342
342
342
341
342
341
341
341
341
341
341
341
343
341
341
342
342
342
342
342
342
342
342
342
342
341
341
341
341
341
341
342
344
343
344
345
345
346
347
347
348
347
346
346
346
346
345
345
345
345
344
344
344
344
344
346
345
345
346
346
346
346
346
346
347
347
346
345
346
346
345
346
345
346
346
346
346
346
347
348
347
348
349
349
349
349
349
349
348
347
346
346
345
344
344
344
343
344
345
344
344
344
345
345
345
345
344
344
343
343
343
342
342
342
342
341
341
340
340
340
340
339
339
339
339
338
338
338
338
338
338
338
338
338
338
339
340
340
341
341
341
342
342
342
341
340
340
340
339
339
339
339
339
339
339
339
340
340
340
340
340
341
341
341
341
341
341
340
340
339
339
339
339
339
339
339
340
340
340
341
341
341
341
341
341
341
341
342
342
342
343
344
345
347
349
351
354
356
360
362
365
368
371
373
375
377
379
382
384
385
387
390
392
394
397
399
401
401
401
402
401
399
396
393
389
385
380
375
370
366
359
353
348
343
339
334
330
327
323
320
317
315
312
311
309
307
306
305
305
304
305
305
306
307
309
311
314
315
317
319
321
322
324
325
326
327
328
329
329
330
331
331
332
332
333
334
335
335
336
337
337
338
338
338
338
338
337
337
337
337
337
336
337
338
338
337
337
337
338
337
338
338
338
338
339
338
338
338
338
338
337
337
337
337
337
340
340
340
341
342
343
343
343
343
344
344
343
343
343
343
342
342
342
342
342
342
343
343
343
343
344
344
343
343
343
342
342
341
341
341
341
341
340
341
340
341
341
341
341
341
341
341
341
342
342
341
342
341
341
340
341
341
340
340
340
340
341
342
341
341
341
342
342
343
343
344
345
345
346
346
346
346
346
346
346
346
346
346
346
347
346
347
347
347
346
346
346
345
345
344
344
344
344
344
344
344
344
345
345
346
346
346
346
347
347
347
347
347
349
348
349
350
350
350
350
351
351
351
351
350
351
351
350
350
350
350
351
348
348
349
348
348
348
347
348
348
349
349
349
349
348
348
347
346
345
344
343
343
342
342
342
342
343
342
343
343
343
344
344
344
344
345
345
345
344
344
343
343
341
341
340
339
339
339
339
339
339
340
340
341
341
341
341
341
341
341
340
339
338
337
336
335
335
334
334
334
335
335
335
336
336
337
337
337
336
335
336
335
335
334
334
334
334
334
335
334
335
335
336
336
336
336
336
336
336
336
336
336
336
335
335
334
335
335
335
336
336
337
337
337
337
338
338
337
337
337
337
337
336
336
335
335
335
335
335
336
335
336
336
337
337
337
338
337
337
337
337
337
336
336
335
335
336
336
335
336
337
338
337
338
338
338
338
337
337
337
337
336
337
335
336
336
335
335
335
336
336
336
337
337
337
338
337
338
338
338
338
338
337
336
336
336
337
337
337
337
338
338
338
338
339
339
339
338
339
338
337
337
336
337
336
336
336
336
336
336
336
336
337
337
337
338
338
338
338
338
338
337
337
337
338
338
336
336
338
338
336
337
337
337
337
337
337
336
337
336
336
335
336
336
337
336
337
338
337
338
338
338
339
339
339
339
339
339
339
338
337
337
337
337
337
336
336
336
336
337
337
337
338
338
339
339
339
339
338
338
337
337
337
336
336
336
337
337
337
337
337
338
338
338
338
338
338
338
338
338
338
338
338
339
337
337
338
337
337
338
337
337
338
338
338
337
338
338
337
337
337
337
337
337
336
336
336
337
337
337
339
338
338
339
340
339
339
339
339
339
338
338
337
337
337
336
336
337
336
336
337
338
338
339
339
339
339
338
338
338
338
337
337
337
337
337
337
337
337
338
338
338
339
339
340
340
339
340
340
341
341
339
339
339
339
338
338
338
338
339
339
339
339
340
340
340
340
340
340
340
339
339
338
338
338
337
337
338
339
338
339
339
340
340
340
340
341
341
341
340
340
339
339
339
339
339
339
339
339
339
340
340
340
340
340
340
340
340
340
339
339
338
338
338
338
338
338
338
338
339
339
339
340
341
341
341
342
342
341
341
340
340
339
339
339
339
338
339
339
339
339
340
341
341
341
341
341
341
341
340
340
341
339
339
339
339
339
340
340
340
341
341
341
341
341
341
341
340
340
339
339
339
339
339
338
338
338
338
338
338
338
339
339
339
339
340
340
340
340
340
339
339
339
339
339
338
339
339
339
339
340
340
342
341
340
342
341
341
341
340
340
340
339
340
338
339
340
339
339
339
339
340
340
341
341
341
341
341
341
341
340
339
339
339
339
339
340
340
340
341
341
341
341
341
341
341
341
341
340
340
340
339
339
339
339
339
340
341
341
342
344
344
345
346
346
346
346
346
346
345
345
344
344
344
343
344
344
343
345
345
344
345
345
346
346
346
346
346
345
345
345
345
344
344
344
344
344
344
344
345
345
345
345
346
345
346
346
347
347
348
348
348
348
347
346
345
345
344
343
343
344
344
344
344
345
345
345
345
345
345
345
344
344
344
344
344
343
343
343
344
343
343
343
343
342
342
341
340
340
340
339
339
339
339
338
339
339
339
338
339
340
340
341
341
341
341
341
342
341
341
340
340
340
340
339
339
339
339
339
339
340
342
341
342
342
342
342
342
342
341
341
340
339
339
338
338
338
338
338
339
339
340
340
341
341
341
341
343
342
341
342
342
342
343
343
343
346
346
347
349
351
353
356
358
361
364
367
370
371
374
377
379
380
382
384
386
388
390
392
394
396
398
399
399
400
399
397
395
392
389
385
381
376
371
366
361
356
351
346
341
337
333
329
325
321
318
315
313
311
309
307
305
306
304
304
304
305
305
307
308
310
312
314
316
318
320
322
323
325
326
327
327
328
329
330
330
331
332
332
333
334
335
336
336
338
339
338
338
338
338
337
337
337
336
336
336
335
335
336
336
337
337
337
338
338
339
338
339
339
338
338
337
336
337
337
336
336
336
335
336
336
337
338
339
341
341
342
343
344
344
343
343
343
342
342
341
341
341
341
341
341
341
342
342
343
342
342
342
343
342
342
342
342
341
341
341
341
342
342
342
342
342
343
343
342
342
343
342
342
342
341
341
341
342
340
340
340
340
341
341
341
342
342
343
343
342
343
343
344
344
345
345
346
346
346
346
346
346
346
346
347
347
347
347
347
347
347
347
346
346
346
345
345
344
344
344
343
343
343
344
344
344
345
345
346
346
346
346
346
346
346
346
347
347
348
349
350
349
349
351
351
350
350
351
351
351
351
351
350
349
349
349
348
348
347
347
347
347
347
347
348
350
349
349
349
349
348
347
346
346
345
343
343
342
342
342
342
342
342
342
343
343
344
344
344
345
344
344
344
343
343
342
341
341
340
340
339
339
339
338
338
338
339
339
339
339
339
339
339
339
339
339
338
337
336
335
335
334
333
333
333
333
333
333
334
334
334
334
334
335
334
334
334
333
333
333
333
333
333
334
334
334
334
334
335
335
335
335
335
335
335
334
334
333
333
333
333
333
333
334
334
335
335
335
336
336
336
336
336
336
336
335
335
335
335
334
334
334
334
334
334
335
335
336
336
336
336
337
337
336
336
336
336
335
334
334
334
334
334
334
335
335
336
336
336
337
337
337
337
336
336
336
335
335
334
334
334
335
335
335
336
336
336
336
336
336
336
336
336
336
336
335
335
335
335
335
335
335
336
336
337
337
337
337
337
338
338
339
339
339
338
338
338
337
337
337
336
337
337
337
337
337
338
339
338
339
339
338
338
338
337
337
337
336
336
335
336
336
336
337
337
338
338
338
338
338
338
338
338
338
337
337
336
336
336
336
336
337
337
337
338
339
339
339
339
340
339
340
339
338
338
337
336
337
336
336
336
336
336
336
337
337
338
338
339
339
339
339
339
338
338
338
337
337
337
336
337
336
337
336
337
337
338
338
338
338
339
339
339
338
338
337
337
336
336
336
335
335
335
336
336
336
337
339
338
339
338
338
338
338
338
338
338
337
338
338
337
337
337
338
338
338
339
339
339
339
339
339
339
339
339
338
339
338
338
338
338
338
338
339
339
339
339
339
340
340
340
340
339
339
339
340
338
339
338
337
337
337
337
337
338
338
339
339
339
339
340
340
339
340
339
339
339
338
338
338
338
338
338
339
339
340
340
340
340
340
340
340
340
340
340
339
339
340
338
338
339
339
338
339
339
340
340
341
341
341
341
341
341
340
340
340
339
339
339
338
338
338
338
338
339
339
340
340
340
340
341
341
340
341
340
340
340
339
339
338
338
338
339
339
339
339
340
340
340
340
340
340
340
340
340
339
339
338
338
338
339
339
339
339
339
340
340
340
341
340
341
340
340
339
339
338
339
338
338
338
338
339
339
339
340
340
340
340
340
341
341
341
341
341
341
340
340
339
339
338
339
338
338
339
339
339
339
340
340
340
340
340
340
340
339
339
339
339
338
338
339
339
339
339
340
340
340
341
341
341
341
341
341
341
340
339
339
339
339
339
338
338
339
339
340
339
340
339
341
341
340
340
341
341
340
340
340
340
339
339
339
339
339
339
340
340
340
341
342
342
342
341
341
342
341
340
340
340
339
340
340
340
341
342
343
344
345
345
345
346
346
346
346
345
345
345
344
344
344
343
343
343
343
344
344
344
344
344
345
345
345
345
347
345
345
344
344
344
344
344
343
344
344
345
344
344
345
345
345
345
346
346
346
347
347
347
348
348
347
347
346
345
345
344
344
344
345
343
343
343
344
343
344
343
343
344
344
343
343
343
343
343
343
343
343
343
343
342
341
341
341
340
340
339
339
339
338
338
338
338
338
338
338
338
339
339
340
340
341
341
341
342
341
341
341
341
340
340
339
340
340
340
338
340
340
340
340
340
340
341
341
340
340
340
340
340
339
339
338
338
338
338
338
338
339
339
340
340
340
340
340
340
340
340
340
340
341
341
341
342
343
344
345
347
349
351
353
356
358
361
363
366
368
370
373
375
377
379
382
384
386
388
390
393
395
397
399
400
401
401
401
399
397
395
391
387
383
378
374
369
363
359
353
348
344
339
335
331
327
324
320
317
314
311
310
308
306
305
305
305
305
305
306
308
309
311
313
315
317
319
320
322
323
325
325
326
327
327
329
330
331
331
332
333
333
334
335
336
337
337
338
338
339
339
339
338
338
338
338
337
337
337
337
337
337
337
338
338
338
338
338
339
339
338
337
337
338
337
336
336
336
337
337
337
338
339
340
341
341
342
343
344
344
344
344
343
343
343
342
342
342
342
342
342
342
343
342
342
342
343
342
342
342
342
342
341
341
341
341
341
341
341
341
342
342
342
342
342
342
343
343
343
342
342
342
342
341
341
341
340
340
340
340
340
340
340
341
342
342
342
342
341
342
342
341
342
342
342
343
344
344
344
345
345
346
345
346
346
346
347
347
347
346
346
346
346
346
345
345
345
345
345
345
346
346
345
346
346
346
347
347
347
346
346
346
346
346
347
347
347
348
348
349
349
350
350
350
350
351
350
350
350
350
349
349
348
348
347
347
348
348
347
348
349
349
348
350
350
350
349
349
348
347
346
345
344
343
343
342
342
342
342
342
343
343
343
344
343
344
346
344
345
344
344
344
343
343
342
341
341
340
339
338
338
337
337
338
338
338
339
339
340
340
340
340
340
340
339
338
338
337
336
335
335
334
334
334
334
334
334
335
335
335
335
335
335
334
334
334
334
334
334
334
333
335
335
335
334
335
335
335
335
335
334
334
335
334
334
333
334
334
334
335
335
335
335
336
336
336
336
336
337
336
336
336
336
335
336
335
335
335
335
335
336
336
336
336
336
337
337
337
337
337
336
336
336
335
335
335
334
334
334
334
335
335
336
336
336
337
337
338
338
338
337
337
338
337
338
337
337
338
336
337
336
336
336
336
337
337
337
337
338
337
337
337
337
336
336
335
335
335
334
334
335
335
335
336
336
336
336
336
336
336
336
336
335
335
335
335
335
335
335
334
335
335
336
336
336
336
337
336
336
336
336
336
336
335
335
335
335
335
335
335
336
336
336
336
337
337
338
337
337
338
338
337
337
337
337
336
336
337
337
337
337
337
337
338
338
337
338
338
338
337
337
337
337
337
337
336
336
336
336
337
337
337
338
338
339
339
339
340
340
339
339
338
338
337
337
337
337
337
337
337
337
338
338
339
339
339
340
340
340
339
339
339
339
338
338
338
338
338
338
338
338
338
339
339
340
339
340
341
341
340
340
339
339
339
339
338
338
338
339
337
338
338
339
339
340
340
341
340
340
340
340
340
339
339
338
338
338
338
338
339
339
339
339
339
339
340
340
340
341
341
340
340
340
340
339
339
339
338
338
339
338
339
339
339
339
340
340
340
340
340
340
339
338
338
338
337
337
337
338
337
337
338
339
338
340
339
340
339
339
339
339
339
339
338
338
338
337
337
337
338
338
339
339
340
340
340
340
340
340
340
339
339
339
339
339
339
339
338
338
340
339
339
339
339
339
339
340
340
340
341
340
340
340
340
339
339
339
339
339
339
340
339
339
340
340
340
341
341
341
341
341
340
340
340
340
340
339
339
340
339
339
339
341
340
340
340
340
340
341
341
341
341
340
340
340
340
339
339
339
339
340
339
340
340
340
340
341
341
341
341
340
340
340
340
339
339
338
338
339
339
339
340
341
340
341
341
342
342
342
341
341
341
341
340
340
340
339
339
339
339
339
339
340
341
340
340
340
341
341
341
341
341
342
341
340
340
339
340
339
339
339
339
340
340
340
340
341
341
341
340
340
340
340
340
340
339
339
339
339
339
339
339
340
340
341
341
342
342
342
342
342
342
341
341
340
340
340
340
340
341
342
344
344
345
346
346
347
347
347
348
347
346
346
345
344
343
343
343
343
344
344
344
345
345
345
346
346
346
346
347
347
346
345
344
345
345
344
344
344
344
345
346
345
345
346
345
345
345
346
346
346
347
347
348
348
348
349
347
347
346
346
345
345
345
345
345
345
344
346
344
344
344
344
344
344
344
343
343
343
343
343
344
344
343
343
343
341
341
340
340
339
339
338
337
337
337
337
337
337
337
338
338
338
339
340
340
339
341
341
340
340
339
339
339
338
337
337
337
337
337
337
337
338
338
339
339
339
340
340
340
340
339
339
339
339
338
338
338
338
339
338
339
340
339
339
340
340
340
341
341
341
340
340
340
340
340
341
342
343
343
345
346
348
350
352
354
357
359
362
364
367
369
371
374
375
378
380
382
385
387
389
392
395
396
398
400
401
401
400
399
397
394
391
387
383
379
375
369
365
360
355
350
345
341
336
332
329
325
321
318
315
312
310
308
307
305
305
304
304
305
306
307
309
310
312
315
315
318
319
321
322
323
324
325
326
327
328
330
331
332
333
335
334
335
336
337
337
338
338
338
338
339
338
338
338
339
338
337
337
338
337
337
338
338
338
338
338
338
338
338
338
337
337
338
337
337
337
337
337
337
337
338
339
338
339
340
341
341
342
342
342
342
342
342
342
342
342
342
342
342
342
342
343
343
343
343
343
343
343
343
343
342
342
342
342
343
341
341
341
341
341
342
342
344
343
343
343
344
344
344
344
343
343
342
343
342
342
342
342
341
341
341
341
342
342
342
342
343
343
342
342
342
343
343
344
344
345
345
346
347
346
347
347
347
347
347
347
347
347
346
346
346
345
345
345
345
344
344
345
345
345
345
345
346
346
346
347
346
346
346
346
346
345
345
346
346
346
347
348
349
350
350
351
352
353
353
354
354
353
352
352
352
351
350
350
349
349
349
348
350
349
349
350
350
350
350
350
350
349
349
348
347
345
344
344
342
342
342
342
342
342
343
343
344
344
344
345
345
345
344
344
344
344
343
343
342
341
341
340
339
339
339
338
338
338
338
338
338
338
338
338
338
338
338
338
338
338
337
336
336
335
335
334
335
334
335
334
334
334
334
335
333
333
333
333
333
332
333
333
334
334
335
335
336
336
336
337
337
337
337
336
336
336
335
335
334
334
334
334
334
335
335
335
336
336
336
337
337
337
337
337
336
336
335
335
334
334
334
334
334
335
335
336
336
336
337
337
337
337
337
336
336
335
335
334
334
334
334
334
335
335
335
336
337
336
337
337
338
337
337
337
338
337
336
337
337
337
335
335
335
335
335
336
336
336
336
336
336
336
336
336
335
335
335
335
334
334
334
334
335
335
336
336
336
337
337
338
337
337
337
337
337
337
337
336
336
336
336
336
336
336
337
337
338
337
338
338
338
338
338
338
338
338
338
337
336
337
337
336
336
337
337
336
337
337
338
338
338
338
338
338
338
337
337
337
337
337
337
337
338
338
338
338
339
339
339
339
339
339
339
338
338
338
338
338
337
338
337
337
337
338
338
338
338
339
339
339
339
339
339
339
338
338
338
337
337
337
337
338
338
338
338
338
339
339
339
339
339
339
339
339
339
338
339
339
338
337
337
338
338
338
338
338
339
339
341
339
339
340
340
339
339
338
338
337
337
337
337
337
337
337
338
338
338
339
340
340
340
340
340
340
339
339
338
338
338
338
338
337
338
338
338
338
339
339
339
339
339
339
339
340
338
337
338
338
337
337
337
337
337
338
338
338
339
340
340
340
340
341
339
339
339
339
340
338
337
337
337
337
337
337
337
339
338
339
339
339
340
340
340
340
339
339
339
338
338
338
338
338
338
338
338
338
339
339
339
339
339
339
339
339
340
339
338
338
338
337
337
337
337
337
337
337
337
337
338
338
338
338
338
338
338
338
338
338
337
337
337
337
337
338
338
339
339
339
341
341
340
340
340
340
339
338
338
337
337
337
337
336
337
337
337
338
339
340
341
341
341
341
342
341
340
340
339
339
339
339
338
338
338
338
338
339
339
339
341
340
340
340
340
341
339
339
338
338
337
337
337
337
337
337
338
338
339
339
340
340
340
341
340
340
340
340
339
339
339
338
338
338
338
340
339
339
341
341
340
341
341
341
340
340
339
339
339
340
338
338
338
338
338
338
339
339
339
340
340
340
340
340
340
339
339
339
338
338
338
338
338
338
338
339
339
339
340
340
340
341
341
341
340
340
340
339
339
339
338
338
338
338
339
340
340
341
342
343
343
344
345
345
346
346
345
345
345
345
344
344
345
345
344
344
344
344
344
345
345
345
346
346
345
345
345
345
345
344
344
345
344
344
344
344
344
344
344
344
345
345
345
345
345
345
345
346
346
347
347
348
347
347
346
346
345
345
344
344
344
344
344
344
343
343
343
343
343
343
342
342
344
342
342
342
342
342
343
343
343
342
342
341
340
340
340
338
337
339
338
337
337
337
336
337
337
337
337
337
338
338
339
339
340
340
340
339
339
339
338
339
338
338
338
338
339
339
340
340
340
340
340
340
340
340
339
339
338
338
337
337
337
337
337
337
337
337
338
338
338
338
339
339
339
339
339
339
339
339
340
340
340
341
342
343
344
346
347
349
352
354
356
359
362
363
365
368
370
372
374
376
378
381
383
385
388
391
394
395
396
398
399
399
399
398
396
393
390
386
382
378
374
370
365
361
356
351
347
342
337
334
329
325
322
318
315
312
310
308
306
305
303
303
302
303
303
304
306
308
309
311
313
315
317
319
319
321
322
323
324
325
326
327
329
330
331
332
333
333
334
336
337
336
337
338
338
337
336
337
336
336
336
336
336
337
337
339
338
338
338
339
339
339
339
339
338
338
337
338
337
336
336
336
336
336
336
336
337
337
337
338
339
340
340
341
341
341
341
341
341
341
341
340
341
341
341
341
343
342
342
342
344
343
342
342
342
342
342
341
340
341
341
340
341
342
342
341
342
342
343
342
343
343
343
343
343
341
341
341
341
340
340
340
340
340
340
340
341
341
341
341
341
341
341
341
340
340
340
341
341
342
343
343
344
345
345
346
346
348
347
347
347
347
347
347
346
346
345
345
345
345
345
344
345
345
345
345
346
346
346
347
347
346
346
345
345
345
344
344
344
344
345
345
346
347
347
348
349
349
350
350
350
350
350
350
349
349
349
348
348
347
347
347
347
347
347
348
348
349
349
350
350
350
350
349
348
347
346
345
344
343
343
342
342
342
342
342
343
343
344
344
345
345
345
345
345
345
344
344
344
343
342
341
340
340
339
338
338
338
338
338
338
338
338
337
337
337
337
337
337
337
337
337
336
336
336
335
335
335
335
335
335
335
335
335
335
334
334
334
334
334
334
334
334
334
334
335
335
335
336
336
336
336
336
336
336
335
335
335
335
334
334
334
334
334
334
335
335
335
336
336
337
337
337
337
336
336
336
336
335
335
335
335
335
335
335
335
335
335
335
336
336
336
337
337
336
337
336
336
336
336
335
335
335
335
336
336
336
336
337
337
337
337
338
337
337
336
336
336
335
335
335
335
335
335
336
337
337
337
338
338
339
338
338
338
337
336
336
335
335
335
334
334
334
335
335
335
336
337
337
337
338
338
338
338
338
338
337
337
337
337
336
