0
343
342
340
341
345
348
347
345
345
346
348
347
344
344
347
351
351
349
348
349
350
350
347
343
342
344
344
342
342
342
341
339
337
337
337
336
333
332
333
334
335
335
334
333
335
338
338
335
333
335
337
337
335
334
335
336
337
335
334
335
337
336
335
334
336
337
336
335
335
336
338
338
336
334
335
337
337
336
334
335
337
337
334
335
336
339
338
337
336
337
339
338
337
338
339
340
340
338
339
339
341
340
338
337
339
342
341
339
338
339
341
341
338
337
338
340
340
338
337
339
341
341
339
339
340
341
340
337
336
338
340
339
337
337
338
340
341
338
337
340
342
340
339
338
340
342
341
339
338
340
342
342
339
339
340
342
342
339
338
340
341
341
339
338
340
344
346
345
344
344
345
344
342
343
345
346
346
343
343
347
348
345
343
342
343
344
343
338
336
337
339
339
338
336
339
342
341
338
337
338
341
341
340
338
341
346
353
360
368
379
391
398
399
391
376
358
338
320
308
305
307
311
316
322
328
334
336
336
336
338
340
339
336
336
338
340
339
340
341
342
345
344
342
339
341
344
344
342
341
341
343
343
341
340
344
349
348
346
344
345
347
346
345
344
347
351
351
348
347
348
350
351
349
346
345
345
344
344
343
343
341
339
337
337
338
338
335
332
332
334
336
336
334
333
334
336
336
334
333
335
337
336
334
334
334
337
337
335
335
336
337
336
335
334
335
339
338
336
334
335
338
338
336
335
336
338
338
336
336
337
338
339
337
336
337
338
337
336
335
336
338
337
336
335
337
340
340
336
335
337
338
338
336
336
338
341
340
338
337
338
339
339
338
337
339
341
340
338
337
338
340
341
339
337
337
341
340
337
336
337
339
339
337
336
338
341
341
339
337
339
340
340
339
337
338
341
341
339
337
338
341
341
339
338
339
341
341
339
337
338
341
340
338
337
339
342
344
343
342
343
346
345
342
341
342
345
345
343
342
347
347
346
342
341
342
345
344
339
336
337
340
340
339
337
338
341
341
338
337
338
342
341
339
337
339
344
349
356
365
377
388
398
399
394
382
367
346
325
310
307
307
310
314
319
326
333
335
335
336
337
339
339
338
336
336
339
339
338
341
343
345
344
340
339
341
344
343
342
340
341
342
343
340
339
343
347
349
347
346
347
348
347
346
344
346
350
352
351
349
349
350
350
348
344
342
344
344
344
342
343
342
342
338
337
338
337
335
332
331
333
336
336
335
334
335
337
337
335
333
336
337
336
335
334
336
337
338
334
334
336
338
338
336
335
336
338
337
335
334
336
338
338
336
335
336
338
338
336
336
337
339
338
336
336
336
339
338
336
336
336
339
339
338
336
337
338
339
337
335
337
339
339
338
336
337
339
339
337
337
338
340
339
337
337
338
340
339
337
336
338
341
341
339
337
338
339
340
338
338
340
342
342
340
338
340
342
342
340
338
338
341
341
340
338
340
342
342
339
338
339
341
342
340
339
340
342
341
338
337
338
341
341
339
338
339
342
344
345
343
344
346
345
343
341
342
345
344
343
342
346
348
345
342
340
342
344
345
341
337
337
339
340
338
337
338
340
341
338
337
339
341
342
340
338
339
344
348
353
362
374
385
394
398
397
387
372
351
331
315
308
306
308
313
317
324
331
335
334
334
336
338
338
337
336
336
338
339
338
339
342
344
344
342
340
341
343
344
342
340
341
342
343
341
341
342
348
349
347
344
345
348
348
346
343
344
350
352
350
348
349
351
350
348
346
342
343
344
343
342
343
344
341
339
336
338
340
336
333
332
334
336
336
336
334
334
335
335
334
332
334
336
336
336
334
335
337
338
336
334
335
338
338
336
334
335
337
338
337
335
336
338
338
336
335
336
338
339
337
336
337
339
339
337
335
336
337
338
337
335
335
337
338
338
336
337
340
340
337
336
338
340
341
339
336
338
340
341
339
338
338
340
339
339
338
338
340
341
339
337
339
342
341
340
338
339
340
341
340
338
338
339
341
340
338
339
341
341
340
338
340
341
342
339
338
339
341
342
341
339
339
341
342
339
338
339
342
344
341
338
339
341
341
340
339
340
341
343
344
344
345
346
346
343
342
344
345
346
344
342
347
350
349
344
342
342
345
346
343
339
338
340
341
340
338
339
340
340
338
338
339
341
342
340
338
339
343
346
351
360
372
383
391
398
399
393
379
359
338
320
311
307
307
310
316
323
330
336
335
336
338
339
339
337
336
336
338
339
338
340
342
344
343
342
339
340
342
342
341
340
342
344
344
342
340
341
346
348
346
344
344
347
347
345
344
344
348
350
350
349
349
351
352
349
346
345
345
345
345
342
342
343
341
338
338
338
340
338
333
332
334
337
337
335
333
334
337
338
336
335
336
338
340
337
335
336
339
339
337
336
335
338
339
336
334
336
339
339
339
336
337
337
339
337
336
336
339
339
337
336
337
338
339
337
336
336
338
339
337
336
336
339
340
338
336
337
339
339
338
337
337
339
340
338
337
338
341
341
339
337
338
341
341
338
336
337
339
339
338
337
338
340
341
339
337
338
340
341
339
337
338
339
340
339
338
339
341
341
340
338
338
341
342
340
338
340
342
342
339
337
339
341
341
340
337
338
341
342
341
339
338
340
341
340
338
339
341
344
345
344
345
347
347
346
344
345
347
346
344
343
345
350
349
345
342
342
346
346
344
340
338
340
341
340
338
339
340
341
340
338
339
340
341
339
338
338
342
346
349
357
367
379
388
395
398
395
384
366
343
323
311
307
306
308
314
321
329
333
333
333
337
339
339
336
334
336
337
338
337
338
341
343
344
343
340
341
342
343
341
340
341
343
344
342
340
340
344
347
346
344
345
348
349
347
344
345
348
351
351
348
348
349
351
350
347
346
345
344
342
341
342
345
344
338
336
337
340
339
335
332
333
336
337
335
333
334
337
337
335
333
335
336
337
335
334
335
337
338
336
335
335
337
338
336
334
336
338
338
336
334
335
337
338
336
335
336
338
339
338
336
336
338
338
337
335
336
338
339
338
336
337
339
339
338
336
337
339
340
338
336
337
340
340
339
336
337
338
340
339
338
339
341
341
339
338
338
339
340
338
337
337
339
340
340
337
338
340
341
340
338
338
340
341
340
338
339
341
340
339
340
339
341
341
339
337
338
339
341
340
338
339
341
341
340
338
338
339
340
338
337
338
339
340
339
337
339
341
343
344
344
344
346
347
345
343
344
346
346
345
342
344
348
350
346
343
342
345
346
345
340
339
339
340
340
338
338
340
340
339
338
338
340
341
340
337
338
341
345
346
351
362
376
385
392
396
397
387
372
352
330
315
307
305
307
311
319
326
332
334
334
336
338
339
337
336
336
339
340
338
339
340
343
343
342
340
341
343
344
343
340
341
344
344
342
340
341
344
348
347
344
343
346
347
345
343
344
346
350
350
350
348
350
351
350
347
346
345
345
343
342
342
344
345
340
336
337
339
339
336
332
332
335
337
336
334
334
337
338
335
333
334
336
337
336
334
334
336
337
336
334
334
336
338
336
334
336
338
339
336
335
335
337
338
337
336
336
338
339
338
336
336
339
340
338
336
337
338
338
335
334
335
337
339
339
337
337
339
339
338
337
337
340
341
340
337
337
339
341
340
338
338
340
341
339
337
337
340
341
340
337
338
340
342
341
340
340
341
341
341
339
338
340
342
340
339
340
342
343
341
339
339
341
342
341
340
339
340
341
340
338
338
340
342
341
340
340
341
342
341
339
338
341
342
342
340
339
340
341
341
343
344
346
347
345
343
343
345
346
345
343
343
347
348
346
341
341
342
344
342
340
339
340
340
339
337
337
339
342
341
339
339
341
343
343
339
337
340
344
345
349
359
371
382
389
395
397
391
377
356
334
318
310
306
306
309
315
323
329
332
332
334
337
339
337
334
334
337
339
337
336
339
343
344
342
339
339
344
343
341
340
340
342
344
342
339
339
342
346
346
344
344
346
347
345
341
341
344
347
349
348
348
349
350
349
346
345
344
344
343
341
341
343
344
339
335
336
339
340
335
332
332
334
336
334
332
332
335
337
336
334
334
336
336
334
332
333
335
336
333
331
332
335
337
335
333
334
337
337
335
334
334
336
337
336
335
335
337
338
337
335
334
337
339
337
336
336
338
339
338
337
338
339
340
339
336
336
338
339
338
336
336
338
340
339
336
336
338
340
338
337
337
339
340
339
336
336
338
340
338
336
336
338
339
339
337
337
339
340
338
337
338
339
340
339
337
337
340
341
340
338
338
339
341
340
338
338
340
342
341
339
339
340
341
339
338
338
340
341
340
338
338
340
341
340
339
338
340
342
341
342
345
346
349
345
343
343
345
347
345
342
342
345
349
347
344
342
344
346
346
343
341
340
341
340
338
338
341
342
340
338
338
340
342
340
338
339
340
343
345
348
356
369
379
387
394
398
396
384
363
340
323
312
307
305
307
314
323
330
333
333
335
337
339
338
337
337
339
341
340
337
339
344
346
345
342
342
344
345
344
342
341
342
344
343
341
341
344
347
347
346
346
347
348
346
345
344
347
349
350
349
349
350
352
351
348
348
347
346
344
343
343
345
347
342
337
336
339
342
338
333
332
335
336
335
334
333
335
337
336
334
335
337
338
338
336
336
337
339
336
334
335
338
339
337
335
336
338
339
338
335
335
337
340
338
336
336
338
339
337
336
335
337
337
336
334
336
339
340
338
336
335
337
339
339
337
337
339
339
338
336
337
339
340
339
336
336
338
339
338
336
337
338
340
339
336
336
338
339
338
337
337
338
340
339
336
336
338
340
339
337
336
338
339
338
337
338
339
340
339
336
336
338
340
340
337
336
338
339
339
337
337
339
340
339
336
337
339
339
339
337
338
340
340
340
338
338
339
340
339
340
341
344
345
344
342
342
344
345
345
342
341
343
348
348
343
341
342
345
344
341
340
339
340
339
337
337
339
341
340
337
337
339
341
338
337
336
338
341
343
344
352
364
376
383
389
396
397
387
368
347
329
316
309
308
306
310
319
327
331
332
333
336
338
337
335
334
336
338
336
334
336
342
345
343
339
338
341
343
342
340
340
342
343
342
339
339
341
344
345
344
345
345
346
345
344
344
346
347
348
348
348
349
350
349
348
348
348
347
344
341
342
344
346
343
337
335
338
341
338
333
333
335
337
336
333
333
335
336
335
333
334
336
338
336
334
334
334
336
335
334
333
336
337
336
333
334
336
338
337
335
336
338
339
337
334
335
337
339
338
335
335
337
339
339
337
337
338
339
338
337
336
339
340
340
337
337
338
341
340
337
336
338
340
340
337
337
338
341
340
338
338
339
341
339
337
336
338
340
339
338
338
339
340
339
338
338
339
341
341
337
337
341
342
341
339
338
339
341
340
338
338
340
342
341
338
338
340
342
342
340
339
340
341
340
338
338
340
342
342
340
338
339
341
340
339
339
341
344
342
342
344
346
347
347
345
345
345
346
345
344
344
346
350
350
345
343
345
347
346
343
341
340
340
340
338
338
340
342
342
339
338
340
342
342
340
338
340
343
344
344
350
362
374
383
390
395
399
393
378
355
335
320
310
305
303
308
317
324
328
329
331
336
340
340
336
335
337
339
338
336
335
340
344
343
340
339
341
344
342
339
339
342
344
342
340
339
341
344
346
346
347
348
348
347
344
344
346
348
348
349
350
351
351
350
349
348
349
349
345
343
342
344
346
343
339
338
340
340
338
333
331
333
337
336
334
333
335
336
336
334
334
335
337
336
334
333
335
337
335
333
333
336
337
336
334
334
336
338
337
334
334
336
338
337
335
336
337
339
337
336
336
338
340
338
336
335
337
339
338
335
337
338
339
339
336
337
338
340
339
337
337
339
340
339
337
337
339
341
340
337
337
339
340
339
338
337
339
340
339
336
337
339
340
340
337
337
339
341
341
337
337
339
342
342
339
338
340
342
340
338
338
342
342
340
339
338
340
341
341
339
338
340
342
340
338
338
341
341
341
339
339
341
342
341
339
339
340
342
341
340
342
345
348
346
343
342
344
345
345
342
342
345
346
348
346
343
344
346
345
343
342
341
340
340
337
337
338
340
339
337
336
338
340
339
337
337
340
342
342
342
347
358
371
379
385
394
399
397
383
362
341
325
313
307
303
307
316
323
328
330
332
336
340
339
336
335
337
339
339
337
336
341
345
344
342
341
342
344
343
340
340
342
344
342
340
339
341
344
345
345
345
346
347
345
344
344
345
347
347
348
349
351
352
351
347
347
349
348
345
342
342
344
346
345
341
337
338
340
339
336
334
335
335
335
335
335
336
337
335
333
333
335
337
336
334
334
336
338
337
335
335
336
338
336
334
334
337
338
337
335
334
334
336
336
335
335
335
337
337
335
336
336
338
337
335
335
336
338
337
335
335
337
340
339
336
335
337
340
340
337
338
340
341
340
337
337
339
341
339
337
337
339
340
339
337
337
339
341
340
338
338
340
340
341
339
338
339
342
342
339
338
339
341
340
338
338
339
341
341
339
337
338
341
341
339
338
340
342
341
338
337
340
342
341
338
338
339
341
340
338
338
339
342
341
338
338
339
343
342
339
342
345
348
347
344
343
345
346
345
343
343
344
346
348
345
343
344
345
344
342
341
342
341
339
337
338
340
341
341
337
337
340
341
339
337
336
338
341
340
341
344
353
366
375
382
390
398
399
386
367
346
329
317
309
304
306
314
322
326
328
331
335
339
338
335
335
337
339
337
335
334
339
342
343
339
338
340
342
342
339
338
340
343
344
339
339
341
342
343
343
343
344
346
345
343
343
344
345
344
345
348
350
351
350
348
348
350
350
346
341
341
343
346
346
341
338
337
339
340
335
333
333
335
335
333
333
335
337
336
333
332
334
336
336
334
333
333
335
335
333
334
336
338
337
334
332
334
336
336
335
335
337
338
338
336
335
336
339
338
336
335
337
339
337
334
333
336
339
338
336
335
336
339
340
338
336
337
339
339
337
337
337
339
339
337
336
338
340
339
336
336
337
340
340
338
337
338
340
339
338
337
339
341
340
338
337
339
340
340
338
338
340
341
340
340
339
340
342
341
339
339
340
342
341
339
339
340
342
342
340
339
340
343
342
339
338
339
341
341
339
338
340
341
341
338
339
340
342
342
340
341
345
347
347
345
343
344
346
345
344
344
345
346
347
346
344
343
345
345
343
342
344
344
341
337
337
338
341
341
338
338
340
341
341
339
338
339
342
341
341
343
351
363
373
380
388
397
400
392
374
353
334
321
310
304
304
311
319
325
328
330
335
338
339
336
335
336
338
338
336
335
338
343
344
342
341
341
343
343
341
340
341
343
342
341
340
341
343
343
344
344
346
347
345
343
343
344
346
345
346
348
350
352
350
348
346
348
349
346
342
340
343
346
345
342
339
338
340
340
337
333
333
335
334
334
333
335
337
336
333
332
333
335
335
333
333
335
337
335
333
333
334
335
335
333
333
334
338
336
334
334
335
337
337
334
333
335
337
338
336
334
336
338
337
336
334
336
338
338
335
334
335
337
338
336
336
337
339
339
337
337
337
340
340
337
336
338
340
339
337
336
338
340
339
337
336
338
340
339
338
337
338
341
340
338
338
340
341
341
339
337
338
340
340
339
338
339
340
340
339
338
339
341
341
339
338
339
341
341
339
339
340
342
341
339
338
340
343
342
340
340
342
342
342
339
338
340
343
342
340
341
344
347
347
344
342
344
346
345
344
343
344
345
346
346
343
343
345
345
344
343
344
343
341
338
337
340
342
341
339
339
339
341
341
340
338
340
341
340
340
341
348
358
368
377
386
396
402
396
379
360
340
325
314
306
304
310
319
324
327
331
335
338
339
337
337
337
339
339
337
336
338
342
343
342
341
342
344
344
342
341
342
344
343
342
340
342
344
343
343
344
346
349
348
346
345
346
348
347
346
348
351
353
353
350
348
349
350
347
343
341
344
345
345
343
339
339
341
339
337
334
333
334
336
335
334
335
337
337
335
334
335
337
337
335
334
336
338
338
335
333
335
338
337
335
333
335
336
336
335
335
336
338
338
337
336
337
340
339
337
335
337
339
340
338
337
339
340
339
337
338
338
340
340
339
336
337
339
339
338
337
337
339
338
336
335
337
339
339
337
336
338
340
339
338
337
339
341
340
338
337
338
341
341
339
337
338
341
341
338
336
338
341
342
340
338
339
341
341
339
337
339
341
341
340
339
341
343
342
340
338
339
341
343
339
338
340
342
342
340
339
340
342
342
340
338
340
342
341
339
339
344
347
347
343
341
343
346
345
343
342
344
346
345
346
345
343
344
345
344
342
343
343
342
339
337
338
341
342
340
338
339
341
341
339
338
340
341
342
340
343
348
357
367
375
384
394
400
398
384
365
346
330
316
307
303
306
314
321
325
328
334
337
339
338
336
336
338
338
337
336
337
342
344
343
341
342
343
344
343
342
343
344
345
343
341
343
344
344
343
345
347
349
349
347
345
347
348
349
347
348
351
353
353
350
349
349
352
350
344
342
344
345
346
345
342
339
340
341
338
336
334
335
336
334
332
334
336
336
333
332
334
337
336
335
334
335
336
337
334
333
334
335
336
334
335
335
337
336
335
335
336
338
337
336
335
336
340
338
336
335
337
339
339
337
336
337
339
339
337
335
335
337
338
337
335
336
340
339
338
336
338
341
339
337
336
338
340
340
338
337
337
339
339
337
336
337
339
339
337
336
338
340
341
337
336
338
341
340
338
337
338
340
340
338
338
340
342
341
339
337
339
342
341
339
338
339
341
341
339
338
339
342
341
339
338
340
341
341
339
337
339
341
342
340
338
339
342
342
340
338
341
346
348
346
344
345
347
347
346
344
345
347
346
347
347
345
346
344
343
342
343
344
341
338
337
338
340
340
338
336
338
342
342
340
338
338
341
341
340
341
345
353
362
372
380
389
398
400
390
373
354
336
321
310
304
305
312
320
323
327
332
335
337
337
335
337
339
339
336
335
336
339
342
342
341
342
343
343
341
339
341
344
345
342
340
341
343
343
341
343
347
349
349
346
345
346
348
348
346
346
350
354
353
350
347
348
351
351
345
341
343
345
346
344
341
339
340
341
339
337
336
336
337
335
333
334
336
337
336
335
336
336
336
335
333
335
337
337
335
334
336
338
338
336
334
335
337
338
337
335
335
336
337
336
335
336
337
337
335
334
337
338
337
335
334
336
338
338
337
336
337
339
339
338
336
337
339
340
338
338
339
342
342
338
336
338
340
340
338
335
337
339
340
338
336
337
339
339
338
337
338
341
341
339
338
339
340
341
340
338
338
341
341
339
338
339
342
342
340
340
340
342
341
339
339
340
343
342
339
338
339
341
342
340
339
342
343
342
340
339
340
342
341
340
338
340
343
343
341
338
340
345
346
344
342
342
346
347
345
344
344
345
345
345
347
345
344
344
342
341
343
344
342
338
335
336
338
340
338
337
337
339
341
339
337
338
340
340
338
338
342
350
359
368
376
386
396
400
393
378
360
342
325
311
305
305
311
317
320
324
330
335
338
337
336
336
338
339
337
335
335
339
342
342
341
342
343
344
341
340
341
344
344
341
340
341
343
344
342
342
345
348
349
347
344
345
347
348
346
346
349
352
353
350
348
348
350
350
345
340
341
344
345
343
342
339
340
340
338
337
336
336
337
335
333
334
336
337
335
334
335
338
337
335
333
334
337
338
335
334
334
337
338
336
334
335
338
338
336
335
336
337
338
336
335
336
338
339
337
335
335
338
339
338
337
338
339
339
337
335
336
338
339
338
336
336
338
340
338
336
338
340
340
337
335
337
339
340
337
336
337
340
340
338
336
337
340
340
339
337
338
340
340
339
337
339
341
340
337
335
336
339
340
338
337
338
340
341
340
338
338
341
342
340
338
338
340
340
339
338
339
341
342
341
339
339
341
341
339
337
339
341
342
341
339
339
341
343
341
339
340
345
348
345
343
344
346
347
344
343
344
347
346
345
346
346
346
345
343
342
343
345
344
340
337
337
339
340
339
338
339
341
341
339
338
339
341
342
340
339
343
350
358
366
374
383
395
401
397
384
366
348
331
315
306
305
310
317
321
325
330
336
338
337
335
337
339
339
338
336
337
338
340
341
340
342
343
344
342
340
342
344
344
342
340
341
344
344
342
341
345
348
348
346
343
344
346
348
346
345
350
354
353
350
347
348
350
351
347
342
342
344
346
345
343
342
341
341
339
338
337
337
336
334
334
333
336
336
334
333
334
337
337
336
333
334
337
338
336
335
336
338
338
335
333
335
338
338
336
334
335
337
337
336
334
335
337
337
336
335
336
337
338
335
334
336
340
339
338
335
336
338
339
338
337
337
339
340
338
336
337
339
339
338
336
337
339
340
338
337
338
339
340
338
336
337
339
339
338
337
338
340
340
339
337
339
341
340
340
337
337
339
340
338
336
338
340
340
338
336
338
340
341
340
338
339
341
341
339
338
338
341
341
339
337
338
340
342
341
338
339
341
341
340
338
339
341
342
341
338
339
344
348
346
344
344
346
348
347
344
343
345
345
344
346
347
346
345
342
342
343
345
346
341
337
338
342
343
341
338
338
341
342
341
338
338
339
340
339
338
341
346
353
361
370
380
392
401
399
388
372
354
335
318
307
304
306
312
317
321
327
333
335
336
336
336
338
339
336
335
336
337
340
341
340
341
342
343
342
341
341
343
343
342
341
342
346
345
342
340
344
348
348
346
343
345
347
349
345
343
346
351
353
350
348
348
351
351
348
344
343
345
346
344
343
343
342
340
338
336
338
337
336
335
334
336
337
338
335
333
335
337
338
336
334
334
337
337
335
334
335
337
337
336
335
335
337
339
336
334
335
337
339
337
335
336
339
339
337
335
336
338
338
338
337
337
338
338
337
337
338
339
339
336
335
337
339
340
338
335
336
339
339
338
336
338
338
339
337
337
338
339
339
338
336
337
339
340
338
336
337
339
342
340
338
337
339
340
338
337
339
340
342
340
339
339
341
342
340
338
340
342
344
342
338
339
341
343
342
339
340
341
342
341
340
340
342
342
340
338
339
342
342
342
339
340
341
342
340
338
339
343
347
345
343
343
346
347
344
342
344
347
347
345
344
347
349
347
344
342
342
345
346
342
337
338
340
341
340
339
339
341
342
340
338
339
341
343
341
339
341
346
351
359
367
378
390
399
401
392
378
360
341
322
310
304
307
313
317
323
328
334
336
337
337
338
339
340
339
337
338
339
340
341
341
342
345
344
342
341
342
344
345
343
341
340
342
342
342
342
345
348
348
346
344
345
348
348
346
344
345
351
352
350
349
348
351
351
349
344
343
344
345
344
342
342
341
339
338
336
337
336
335
334
333
334
336
337
336
335
335
336
336
335
334
334
336
338
335
333
334
337
339
337
334
334
337
336
334
333
335
337
339
337
335
336
337
338
337
336
336
337
337
336
335
335
338
339
338
336
336
338
339
338
336
337
339
341
340
338
339
341
341
339
337
338
339
339
338
336
337
339
340
339
336
338
340
342
340
337
337
340
341
339
337
339
341
341
340
339
339
341
342
340
338
338
340
341
341
338
337
340
341
340
338
339
341
342
340
338
339
341
341
340
338
340
342
343
340
338
339
340
342
340
339
339
340
341
340
338
340
342
346
346
344
345
347
347
345
342
343
345
346
345
345
347
349
346
343
341
342
345
346
341
337
338
339
340
337
336
337
341
342
340
338
338
339
340
339
338
339
343
348
355
364
375
386
395
400
396
383
367
347
327
312
306
306
310
314
318
324
331
334
335
336
336
338
339
337
334
335
337
339
339
338
340
342
342
340
339
340
343
343
342
340
341
343
343
341
340
343
347
348
346
344
345
347
348
347
344
345
350
352
351
349
349
351
351
349
345
343
344
346
345
344
344
343
341
339
337
338
338
338
335
333
333
336
336
334
333
334
336
336
334
332
334
337
338
336
334
334
336
338
338
335
335
337
339
337
335
335
337
338
336
335
335
338
339
338
336
337
338
340
338
337
337
339
339
338
336
336
338
339
337
335
335
338
340
338
336
338
340
341
338
335
337
339
340
338
336
338
340
341
339
338
338
340
341
340
338
338
341
342
340
340
339
340
341
340
338
339
341
341
339
338
339
341
341
339
338
339
342
343
340
338
338
340
341
340
338
338
341
342
341
340
340
342
343
342
339
340
341
342
341
339
339
341
343
341
339
340
342
346
347
345
344
346
347
344
343
346
346
346
344
342
345
349
347
344
341
343
345
346
343
338
337
339
341
340
339
340
341
341
339
337
339
341
341
340
338
339
343
348
352
361
371
383
393
399
397
388
373
354
334
316
307
306
308
312
316
323
330
335
335
334
336
338
339
338
337
337
339
339
338
339
341
345
344
341
339
340
343
344
341
338
340
342
344
342
339
340
345
347
346
344
345
346
346
344
342
343
348
351
351
348
347
349
351
350
347
345
345
345
344
343
343
344
342
339
336
338
340
338
335
333
334
337
337
336
334
334
336
337
336
333
334
337
338
336
333
333
336
337
336
334
335
338
339
337
334
334
337
338
337
335
335
337
339
337
336
337
339
339
337
336
336
338
340
339
336
336
339
339
337
336
336
338
339
338
336
337
340
340
338
336
338
339
340
338
336
338
340
340
339
336
336
338
339
338
336
336
339
340
338
336
336
340
340
339
336
338
340
341
339
337
337
339
341
339
337
338
340
341
339
337
337
340
341
339
337
338
341
342
340
339
339
342
343
341
339
340
342
342
340
339
338
341
342
341
339
338
340
344
346
344
344
345
346
345
344
343
346
347
345
344
346
350
349
346
343
344
345
346
345
340
339
341
342
340
339
340
342
342
342
340
339
341
341
340
339
339
344
347
352
359
369
380
390
397
399
393
380
361
339
320
309
307
307
310
315
322
328
333
335
334
336
338
338
337
336
336
338
340
339
340
342
343
344
341
339
340
343
343
341
338
339
341
342
341
340
340
345
347
347
344
345
347
348
345
343
344
348
351
349
347
348
350
350
349
347
343
344
344
344
342
342
344
341
338
335
336
339
338
334
331
332
335
336
334
333
333
335
338
335
334
335
336
337
335
333
333
336
337
336
334
334
336
337
336
335
337
339
338
337
333
334
336
338
337
336
337
339
339
337
336
336
338
339
338
336
337
340
340
337
335
336
339
340
338
336
336
339
340
338
337
337
339
339
338
337
338
340
340
339
337
338
339
340
339
338
339
341
343
340
337
337
339
341
340
337
337
339
341
339
338
338
340
341
340
338
339
341
342
340
337
339
341
342
340
338
339
341
341
339
338
339
341
342
341
339
339
341
341
340
339
339
341
342
341
338
338
340
342
343
343
343
345
346
344
343
343
344
344
344
341
343
347
348
343
340
341
343
345
343
339
337
339
340
341
337
339
341
341
339
336
337
339
340
339
338
338
341
345
348
355
366
378
388
395
398
395
384
367
345
324
312
307
306
308
313
320
327
333
333
334
337
339
340
339
335
337
339
339
338
338
341
344
345
343
340
341
342
343
342
339
340
342
342
341
338
339
344
347
346
343
343
345
346
345
343
345
348
351
350
348
348
350
351
349
348
347
345
344
343
341
342
345
344
339
336
336
338
336
332
330
332
336
337
335
333
334
336
337
336
334
334
336
337
336
334
335
337
338
336
335
336
337
336
336
335
335
337
338
337
336
335
337
338
337
334
335
338
339
336
335
336
338
338
337
335
337
339
340
338
336
336
339
339
338
336
337
339
340
338
338
339
340
340
337
336
337
339
340
339
337
337
339
341
339
337
338
339
340
338
338
339
340
341
339
337
337
340
341
340
338
339
341
342
340
338
338
340
340
340
337
339
340
341
340
338
339
341
342
340
338
339
340
340
338
337
338
341
342
339
337
337
339
341
339
338
339
342
342
343
343
344
346
347
344
342
343
345
346
345
343
343
347
350
346
341
342
344
345
343
339
337
338
340
339
337
337
339
339
338
337
337
340
341
339
337
338
340
343
345
351
360
372
383
391
396
397
389
373
352
330
315
307
305
305
309
317
324
330
331
332
334
337
337
336
333
335
337
337
335
335
338
342
343
341
339
340
342
342
341
338
339
341
341
340
338
339
343
349
347
344
343
344
346
345
343
344
346
349
350
348
348
350
352
348
346
346
346
345
343
341
341
343
344
340
336
336
338
339
335
331
331
335
335
334
332
333
336
337
335
333
333
335
336
335
333
333
336
336
336
334
334
336
337
335
333
335
337
338
337
335
336
338
338
336
335
336
338
339
337
336
335
337
338
337
336
336
338
339
337
335
335
337
338
337
336
337
339
339
338
337
338
339
340
338
337
338
341
341
339
336
337
340
341
339
338
339
341
341
340
338
339
340
341
341
339
339
341
341
340
338
338
340
340
338
337
337
339
341
339
337
338
340
342
342
340
340
341
341
339
338
339
342
343
341
339
340
341
341
340
338
338
340
341
340
338
339
341
341
341
342
343
344
345
342
341
342
344
345
343
341
341
344
348
346
343
343
343
344
343
340
338
338
339
338
337
337
340
342
339
337
338
340
341
339
337
338
340
343
344
348
357
370
381
388
394
397
393
379
358
336
320
310
307
305
307
315
322
328
331
332
334
337
338
336
334
335
337
337
336
334
338
342
345
342
339
339
341
343
342
342
341
342
344
342
341
341
343
347
348
346
346
346
348
347
344
345
347
349
350
348
348
350
351
350
347
346
346
345
343
342
343
346
346
341
337
336
339
340
336
333
332
334
335
334
332
333
335
337
336
334
333
336
339
336
334
335
337
337
336
333
333
336
337
336
334
334
336
337
335
334
335
336
338
336
334
335
337
338
338
335
336
338
339
339
336
336
337
340
339
336
336
339
340
339
337
337
339
340
338
336
337
340
341
340
337
337
339
341
339
338
338
340
341
338
337
337
339
340
338
336
337
340
340
339
337
337
339
340
338
337
337
339
340
338
337
338
340
341
340
337
338
339
340
338
337
337
339
341
339
337
337
339
340
339
337
338
340
340
340
339
339
340
341
340
339
339
341
342
341
342
345
347
347
345
342
343
345
346
345
341
342
345
349
347
342
341
342
344
343
341
339
338
339
338
336
337
338
341
340
337
337
339
341
340
338
338
340
342
342
346
355
367
378
386
391
397
396
384
364
341
324
313
308
305
308
313
321
328
331
330
333
336
338
337
334
335
337
340
338
336
338
343
346
344
341
341
343
345
341
339
340
343
344
342
340
340
342
346
347
346
345
347
348
347
344
344
347
348
349
349
349
351
351
350
346
347
349
348
344
341
341
344
345
341
336
336
337
340
336
332
332
334
336
334
333
334
336
337
335
334
334
336
336
335
334
335
337
338
336
333
334
336
337
336
335
336
338
339
337
335
334
336
338
336
334
335
336
338
336
334
335
337
338
337
335
335
338
339
337
335
335
337
339
338
336
336
338
338
337
336
336
338
339
338
336
337
339
340
339
337
337
338
339
337
336
337
339
341
339
336
336
338
339
337
336
336
339
340
338
335
336
338
339
338
336
337
339
339
338
336
336
338
340
338
337
337
339
340
339
337
337
340
341
339
337
338
340
341
339
337
337
339
340
340
340
339
340
340
340
342
343
345
345
343
342
343
344
346
344
341
343
345
349
349
345
343
343
345
344
342
341
341
340
338
338
338
341
341
340
337
337
339
340
341
339
339
340
342
344
346
354
365
376
384
390
397
400
391
373
351
331
317
311
307
306
312
320
327
331
332
335
338
340
339
337
337
339
340
338
336
336
342
345
345
341
341
342
343
341
340
340
342
343
344
342
341
343
344
345
346
346
348
348
345
343
343
347
347
347
347
349
351
352
350
348
348
349
347
343
341
342
345
345
343
338
336
338
340
338
334
332
334
335
335
333
333
335
336
334
332
332
334
336
335
335
334
336
337
338
335
335
336
337
336
334
335
337
337
336
334
335
337
338
337
335
336
337
339
339
336
336
338
340
339
338
338
339
340
339
338
338
338
340
338
336
337
339
340
338
337
337
340
340
338
336
337
340
342
339
337
337
339
340
338
336
337
339
341
339
336
337
339
341
339
338
339
341
341
340
338
339
340
341
340
337
338
340
341
340
338
337
339
341
340
338
338
341
342
340
338
338
340
342
341
338
338
340
343
341
340
341
343
343
341
339
339
341
343
343
344
345
347
349
346
344
345
347
347
345
343
343
345
348
350
346
344
345
345
345
343
343
341
339
338
337
339
341
341
339
338
338
340
341
339
338
339
341
342
343
344
349
361
373
381
387
395
400
394
377
356
336
322
313
306
303
309
318
326
328
330
332
337
339
337
335
335
337
339
338
335
336
340
343
342
340
340
343
344
342
340
339
341
343
342
339
340
342
344
345
346
345
347
347
345
343
343
348
349
349
348
349
351
352
351
348
348
350
348
344
342
343
345
346
345
339
337
338
341
339
336
333
335
337
336
333
332
334
336
334
332
333
335
336
336
335
336
338
338
336
333
333
335
337
337
334
334
336
336
335
334
335
337
339
337
334
335
336
338
336
334
334
336
338
337
335
334
336
337
337
335
335
337
338
338
337
337
338
339
338
337
337
338
339
338
337
338
339
340
339
336
336
339
340
338
337
337
339
341
340
339
339
340
341
340
337
338
340
341
340
337
339
341
342
340
338
339
341
342
340
338
338
340
341
340
340
340
341
341
340
339
339
341
342
340
339
339
340
341
340
339
339
341
342
340
338
339
341
342
339
338
343
347
348
346
343
343
345
346
345
343
343
346
349
349
345
342
343
345
344
342
342
341
340
339
337
337
340
340
339
337
338
340
341
339
337
337
339
340
340
341
345
357
368
376
384
393
401
399
385
364
343
328
316
307
303
306
315
322
326
329
332
336
339
337
335
335
338
339
337
335
336
342
345
344
