0
338
340
341
339
337
338
340
341
338
337
338
340
341
339
336
337
339
340
339
338
339
341
341
339
337
338
342
341
339
338
339
341
341
341
338
339
341
342
341
339
340
342
342
340
338
338
340
341
339
338
338
340
341
339
338
339
341
342
340
338
338
340
341
339
338
338
341
342
340
337
339
342
341
340
338
340
345
347
344
342
342
345
346
344
342
343
345
346
345
346
346
346
345
344
344
344
345
343
339
336
338
340
342
340
338
338
341
342
341
339
340
342
342
341
339
343
350
359
367
375
384
395
401
396
382
365
347
329
313
305
304
309
316
320
324
331
336
338
338
336
337
338
339
338
336
337
338
340
342
342
342
343
344
342
340
341
344
344
342
340
341
343
343
342
341
345
348
349
346
343
344
347
347
345
344
347
351
352
349
348
349
352
351
348
342
341
344
345
343
342
341
340
339
337
337
336
336
335
334
333
334
336
337
334
333
335
337
337
336
334
336
337
337
335
334
335
337
338
336
334
335
339
337
335
334
336
337
337
336
335
336
338
337
336
335
336
337
337
335
335
337
338
338
337
336
337
339
339
337
336
337
339
339
337
335
336
339
340
338
337
339
340
339
338
337
338
340
339
337
337
339
341
341
340
338
338
341
341
339
338
340
342
340
338
337
339
340
341
339
338
339
341
342
340
338
338
342
341
339
339
340
341
341
339
338
340
342
342
339
338
340
341
341
339
338
340
341
341
340
340
341
344
342
340
339
340
344
347
344
343
345
346
346
344
343
346
346
346
344
344
346
345
344
343
343
345
346
344
339
336
338
341
342
340
338
340
342
342
339
340
340
341
341
340
340
345
348
355
363
372
383
394
401
399
387
371
353
334
318
308
304
308
314
319
323
329
334
335
336
336
338
339
338
336
335
336
339
341
341
342
343
344
344
342
340
342
343
342
340
339
342
344
342
340
341
346
349
349
347
344
345
347
346
343
344
348
352
352
350
348
348
352
351
348
343
344
346
346
344
343
343
342
341
340
339
339
337
335
333
332
334
337
337
335
334
335
337
336
335
333
335
337
339
336
336
337
339
337
336
334
335
337
339
337
336
338
339
339
337
336
338
340
339
338
337
339
340
339
337
336
337
340
339
338
337
339
341
341
339
338
339
340
340
338
338
340
341
339
337
337
339
340
339
339
337
339
340
339
338
337
339
341
340
337
337
339
340
339
336
336
339
342
340
338
338
340
342
342
340
339
340
342
342
341
339
340
341
341
339
339
340
342
341
338
338
339
341
341
340
340
341
342
341
339
339
341
343
342
339
338
340
342
340
338
337
340
344
346
344
343
345
348
348
345
344
345
346
345
344
345
349
348
345
343
343
345
347
345
340
338
339
341
341
338
337
340
342
340
338
337
339
341
341
339
338
341
346
352
359
368
380
392
400
401
393
379
360
339
322
311
307
308
312
316
321
329
335
336
335
336
338
340
339
337
335
337
339
339
341
341
343
345
343
340
340
342
344
343
340
340
342
345
343
340
341
345
349
348
345
345
346
348
347
345
344
346
350
351
350
350
352
353
351
348
345
345
346
346
343
343
344
342
340
338
337
339
338
335
333
334
336
338
337
335
334
336
337
336
334
335
337
338
337
334
335
336
338
338
336
336
337
337
337
336
335
338
339
338
336
336
338
339
338
336
336
338
340
339
337
337
338
339
338
337
337
339
340
339
338
338
339
340
340
337
337
339
341
340
338
337
339
340
339
337
336
340
341
340
339
339
340
340
339
338
337
339
341
340
338
337
340
342
341
338
338
341
342
341
340
339
340
342
341
339
337
339
342
342
339
337
339
341
340
338
340
341
342
341
339
340
340
340
341
339
340
341
342
341
339
339
340
341
340
338
338
341
343
345
344
344
345
347
345
343
343
346
348
346
343
343
348
349
345
343
343
344
345
345
339
337
339
342
341
337
338
340
341
340
338
338
341
343
341
339
339
341
345
348
356
366
378
389
396
398
396
386
368
345
324
312
308
308
309
314
321
328
333
335
335
337
339
341
337
336
336
338
338
339
339
341
344
345
343
341
341
343
344
343
341
341
343
344
342
341
341
346
349
348
346
346
348
348
348
345
346
348
352
352
351
351
351
351
350
347
347
346
345
343
341
343
344
344
339
337
339
342
340
337
334
333
336
338
337
335
336
338
339
337
335
335
337
339
337
334
335
337
338
336
335
336
338
339
338
336
336
337
337
336
336
335
338
339
337
335
336
338
339
337
336
337
339
339
338
336
336
338
339
339
337
337
340
341
339
337
337
338
341
340
337
337
339
340
339
337
337
338
339
338
337
338
340
340
339
337
338
340
341
340
338
339
340
341
339
337
339
341
341
340
338
339
341
342
340
339
339
341
341
340
339
340
343
344
341
338
339
341
343
340
338
339
341
342
340
338
340
341
341
339
339
339
342
341
340
338
340
340
342
344
344
344
346
347
345
342
343
346
346
344
342
344
351
351
346
342
343
345
346
346
342
339
339
341
339
338
339
342
343
341
339
340
341
342
339
338
340
342
344
346
352
362
375
385
393
398
399
389
373
351
330
316
309
307
307
312
319
327
332
333
334
337
339
339
336
335
335
338
339
338
338
341
343
346
343
340
341
343
344
342
340
340
341
342
341
339
340
343
346
345
345
344
346
347
346
343
343
346
350
349
348
348
349
350
348
345
345
345
344
343
341
343
345
344
339
336
336
339
339
336
332
333
335
337
335
332
334
337
338
336
333
334
337
337
335
333
335
337
338
336
336
335
336
336
336
334
336
337
338
335
333
335
337
338
336
334
335
340
340
338
336
337
339
340
338
337
337
339
339
338
336
336
339
340
338
336
337
339
340
338
336
337
340
339
337
336
337
339
339
338
337
337
340
340
340
337
338
342
342
340
338
339
341
342
339
337
338
341
342
339
338
340
341
341
339
339
340
342
342
341
339
340
342
342
340
339
339
341
342
339
338
339
342
342
339
338
341
343
342
340
340
341
342
342
341
338
339
341
342
342
343
345
347
346
345
344
345
347
345
343
342
343
348
349
344
341
342
344
344
343
339
338
338
338
338
338
339
341
340
338
337
339
342
341
339
338
339
342
343
344
350
359
371
380
389
395
398
393
378
356
334
319
310
306
304
308
316
324
328
330
331
335
339
337
337
337
338
337
337
337
337
340
344
344
341
339
341
343
343
340
338
339
342
343
342
340
341
344
345
347
346
346
348
348
346
344
345
347
349
349
348
349
350
350
348
347
348
347
345
341
341
343
345
344
339
337
338
340
339
335
333
334
336
337
335
332
334
337
337
334
333
335
337
337
335
334
335
337
338
336
335
336
338
338
336
335
336
338
338
336
335
335
337
338
336
335
337
340
339
337
336
338
341
340
338
337
338
339
338
336
335
337
339
339
337
336
337
340
341
337
337
339
341
340
338
337
339
340
339
338
338
339
340
340
339
337
339
341
342
339
338
341
343
341
339
337
340
341
340
338
337
339
341
341
338
338
339
341
340
339
338
338
342
341
339
338
339
341
341
338
338
339
341
342
339
338
340
342
341
340
340
342
343
341
340
340
340
342
342
342
343
346
349
348
345
344
346
347
347
345
345
346
348
351
347
344
346
346
347
345
343
342
341
341
339
338
339
341
341
339
341
340
342
342
340
339
340
342
343
344
349
358
368
378
386
393
400
398
386
363
341
324
314
308
304
307
316
324
328
331
333
337
339
338
336
336
337
339
338
338
336
340
343
344
342
341
343
345
343
341
340
342
344
343
341
340
342
344
344
345
346
345
347
346
345
344
345
347
347
347
349
351
352
351
348
347
348
348
345
342
342
344
346
345
341
338
338
340
340
337
333
333
336
336
334
333
336
338
337
334
333
336
338
338
336
335
337
338
337
334
335
336
338
338
337
336
338
339
338
335
335
337
339
339
337
336
338
340
339
336
335
338
340
339
336
338
339
340
338
337
337
339
340
339
337
338
339
341
340
338
337
340
341
339
338
337
340
342
340
338
338
340
342
341
338
337
339
341
341
339
338
340
342
341
340
340
341
341
340
339
340
342
343
341
339
339
339
341
340
340
339
341
342
342
340
340
340
342
340
337
339
340
342
339
337
338
341
341
339
337
339
341
342
341
339
339
341
343
341
339
342
346
348
345
343
344
347
349
347
344
344
346
348
350
348
345
345
345
344
343
343
344
343
341
338
338
340
342
341
340
339
341
342
341
339
339
341
341
341
342
347
356
366
375
383
390
399
399
388
370
349
332
319
309
303
305
314
323
327
329
333
337
339
339
336
337
338
340
338
337
337
341
344
345
342
342
344
345
343
341
341
343
343
342
341
341
343
343
343
343
346
347
348
346
345
345
346
348
347
348
350
351
352
351
349
349
351
350
345
341
342
345
347
345
342
339
340
341
339
336
334
335
337
336
334
334
336
338
335
333
334
337
338
335
334
334
337
339
337
336
337
337
338
337
336
337
339
339
337
336
336
338
341
339
337
337
339
340
339
337
337
339
340
339
336
336
338
339
338
337
336
338
340
340
337
337
339
342
340
338
338
340
340
338
337
337
339
340
338
337
338
340
341
338
338
337
339
342
342
338
337
338
340
339
337
337
339
339
338
337
337
339
340
338
336
337
340
342
341
339
339
341
342
341
338
338
341
343
341
338
338
340
341
339
337
338
342
342
340
338
339
341
342
340
339
338
340
341
341
338
341
345
348
345
343
343
345
348
344
342
342
345
345
346
346
345
345
345
344
343
343
345
342
339
336
337
341
343
339
336
337
340
341
339
338
338
340
341
339
340
344
351
361
370
379
389
399
401
392
375
356
337
324
311
304
305
312
320
324
328
332
336
338
338
336
336
338
338
337
337
337
340
343
344
343
342
343
343
341
340
341
344
346
344
341
342
344
344
344
345
347
349
349
346
345
346
349
348
346
345
349
352
352
348
348
347
349
349
345
341
342
345
345
343
341
340
341
341
339
337
335
335
336
336
335
334
336
337
335
334
334
336
337
335
334
334
336
337
335
334
336
338
340
338
337
337
339
338
337
336
337
338
340
337
335
335
337
338
337
334
335
338
340
340
338
338
339
339
338
336
337
340
340
338
336
338
340
340
338
337
338
342
343
341
337
338
340
340
340
339
339
340
340
339
337
338
340
340
339
337
337
340
342
339
337
339
341
341
339
338
339
341
341
339
338
340
343
342
340
339
339
342
342
341
338
339
341
342
340
338
340
342
342
339
338
338
341
341
339
339
342
343
342
341
339
340
342
342
341
339
341
346
347
346
343
344
346
346
343
342
343
346
345
344
345
345
345
345
343
341
343
346
343
339
336
337
341
342
340
338
340
343
342
340
339
339
342
341
340
340
343
350
358
366
376
385
396
400
395
381
362
344
327
312
304
303
311
318
322
326
332
336
338
338
337
337
338
338
338
336
338
339
341
343
341
342
344
345
342
339
341
343
344
341
340
340
343
342
341
342
346
350
348
345
344
345
348
347
345
344
349
353
353
350
347
349
352
351
345
341
342
345
345
344
343
342
342
340
339
338
337
336
336
334
333
335
337
338
335
333
335
339
339
336
335
336
338
337
336
335
337
338
338
336
335
336
338
338
337
334
335
337
338
337
336
338
339
339
336
335
336
338
338
337
336
338
340
338
337
336
338
340
340
338
337
338
341
339
338
336
337
340
341
338
337
338
340
340
338
337
338
339
339
337
337
338
340
339
338
337
339
340
340
339
338
339
343
341
338
338
339
342
341
341
339
341
342
342
340
339
340
343
342
339
337
338
340
341
340
339
340
342
341
339
339
341
343
342
339
338
339
342
342
340
340
342
343
342
341
340
341
346
348
346
345
345
347
346
344
343
344
347
346
343
344
347
347
345
343
342
343
345
344
339
337
338
342
342
340
340
341
343
342
341
340
340
342
341
339
338
342
348
355
364
374
384
395
400
397
384
370
352
333
317
307
306
309
315
320
324
331
335
336
336
336
337
338
338
336
336
337
339
341
341
341
344
343
343
340
339
339
342
342
340
339
341
344
343
341
341
345
348
347
345
345
346
348
347
345
344
348
352
352
350
348
349
351
349
346
342
343
345
345
344
343
343
340
339
337
337
337
337
334
333
333
335
337
336
334
333
335
337
336
333
333
334
337
335
333
333
336
337
336
333
333
334
336
336
335
334
336
337
337
335
335
337
338
337
336
335
337
338
338
337
337
339
339
339
335
335
337
339
339
337
336
336
339
340
338
337
340
340
339
337
337
341
342
340
338
337
339
340
339
338
338
339
341
340
339
338
340
341
341
338
337
338
341
341
339
338
340
341
341
339
339
341
341
340
339
338
340
342
341
340
339
340
342
342
339
338
340
343
342
340
340
341
342
342
340
339
341
343
341
339
340
342
344
342
340
339
342
345
347
345
343
345
347
347
345
343
345
347
345
344
346
349
348
346
342
342
343
345
344
339
337
339
341
341
340
339
340
341
340
338
338
340
341
339
337
337
342
346
352
359
369
381
392
398
397
388
374
356
337
318
308
305
308
312
317
321
329
334
335
336
336
338
339
337
336
335
336
338
339
340
342
343
344
343
341
340
342
344
343
341
341
344
346
343
340
340
345
348
347
344
346
346
347
346
344
344
348
351
352
350
350
350
350
350
347
343
344
345
344
342
342
344
342
339
336
337
339
338
336
334
334
336
337
337
334
333
335
337
337
335
334
337
339
338
335
335
337
338
338
336
336
337
339
337
335
336
338
339
338
336
336
337
339
337
336
336
339
340
339
337
336
339
340
339
335
336
339
342
339
336
336
338
340
339
338
337
338
340
340
339
339
340
342
341
339
338
340
340
339
337
337
339
340
339
338
338
340
341
342
338
337
339
341
339
338
337
341
341
340
338
339
341
342
340
338
338
340
342
342
341
339
341
341
341
339
338
341
344
342
341
340
343
343
341
339
339
342
342
341
339
339
341
342
341
340
340
342
345
348
346
346
346
347
345
343
343
346
346
345
342
344
350
349
344
341
341
343
345
345
340
338
339
340
339
337
338
340
341
339
338
338
340
342
341
339
340
343
346
350
357
368
379
389
395
398
393
382
364
343
324
311
307
308
309
314
320
328
334
335
335
337
339
340
338
336
338
339
339
338
339
341
343
342
341
339
339
341
344
343
340
341
344
344
342
340
340
344
347
346
344
344
346
349
346
345
345
348
351
351
348
348
350
351
349
347
346
345
344
343
342
343
345
342
339
337
337
339
338
335
332
333
335
337
336
333
333
335
336
335
333
334
336
336
335
333
334
336
336
334
332
334
336
338
338
336
335
336
338
337
335
336
338
340
338
335
336
338
339
338
337
337
339
340
339
336
337
339
340
338
336
337
339
341
340
338
337
339
341
340
337
336
339
339
340
336
337
338
341
339
337
338
340
340
339
337
337
339
340
339
338
338
340
342
340
337
338
340
341
339
337
338
341
341
340
338
339
340
341
339
339
339
340
342
341
339
339
341
342
340
338
340
342
341
339
338
339
342
342
340
338
340
342
343
340
339
339
341
343
344
344
344
346
347
345
344
344
346
346
345
344
344
351
349
345
341
342
345
346
345
341
339
340
341
340
338
339
341
343
341
338
339
343
343
340
339
340
343
346
348
353
365
375
385
393
398
397
387
371
349
328
315
309
307
307
312
319
328
331
332
333
336
339
339
338
336
337
338
339
338
339
342
344
344
342
340
340
342
344
342
339
340
343
343
341
338
339
344
347
346
344
344
346
348
346
345
345
348
350
351
349
349
351
352
350
349
347
346
345
343
341
343
346
344
340
337
338
340
339
334
332
332
336
337
335
333
333
336
337
335
333
334
337
337
335
334
336
337
337
336
335
337
337
337
336
335
335
337
337
336
333
335
337
338
336
335
336
340
340
337
335
336
338
339
337
334
336
337
338
336
335
336
338
338
338
335
337
338
339
338
336
337
339
339
337
336
338
340
339
338
337
338
340
341
339
337
339
343
343
340
337
339
341
342
339
338
339
342
342
340
338
339
341
342
340
338
339
340
341
339
338
338
341
342
341
339
340
342
342
340
339
340
343
343
340
339
341
343
343
341
340
340
342
343
341
340
340
342
342
343
343
345
346
347
345
343
344
347
347
344
343
345
349
350
346
342
342
344
346
346
343
340
340
340
341
340
341
342
342
340
338
339
341
342
340
338
339
341
343
345
351
361
372
382
390
397
399
392
376
355
334
320
311
306
305
309
316
325
330
332
333
336
340
340
338
337
337
339
339
337
336
340
344
344
342
340
341
343
343
341
339
341
344
343
341
338
340
342
345
345
344
345
346
346
344
343
343
346
348
350
349
349
350
350
348
346
346
347
344
343
342
344
345
344
339
336
337
339
339
335
331
332
336
337
335
332
334
337
336
334
333
335
337
337
336
334
335
337
338
336
334
335
337
337
335
334
334
336
337
336
335
336
337
338
335
334
334
338
338
336
335
338
341
341
338
337
337
339
339
338
338
338
340
340
338
337
338
340
340
337
336
337
339
339
337
337
338
340
340
339
337
338
340
339
337
336
338
341
340
339
338
340
341
341
338
338
340
343
342
341
339
340
342
342
340
338
340
341
341
340
339
338
342
342
342
338
339
342
341
339
339
340
343
342
340
339
341
342
342
340
340
341
341
341
339
339
340
342
342
342
344
347
348
347
345
344
345
347
346
344
344
345
348
351
346
343
343
345
345
343
342
340
339
339
337
337
338
340
341
338
337
338
340
340
338
338
340
342
342
343
348
358
370
380
387
395
400
397
383
362
339
322
312
307
304
306
314
322
328
330
331
336
338
338
338
336
336
336
336
336
336
339
344
344
341
340
341
343
344
341
341
343
345
344
342
341
342
344
346
346
346
346
348
347
345
345
345
347
347
348
349
349
351
351
348
349
349
349
345
341
341
343
345
345
340
338
338
341
341
336
333
334
336
336
334
332
335
338
336
333
333
335
337
336
335
335
336
338
337
335
335
336
338
338
336
334
335
338
337
335
334
336
339
338
336
335
336
339
338
336
335
338
340
340
338
338
339
340
339
336
336
337
339
339
338
337
338
339
338
337
336
338
340
339
337
337
339
340
339
338
337
338
340
340
338
338
338
340
339
339
337
338
340
340
338
338
340
341
340
338
337
341
343
342
340
339
340
341
340
338
338
340
342
341
341
340
341
344
343
341
339
341
343
342
340
339
341
343
342
341
340
342
342
341
340
340
342
344
345
341
343
347
348
348
345
343
345
347
346
344
342
344
346
349
348
345
344
345
344
344
343
343
341
340
338
338
341
343
341
339
339
340
342
341
339
338
340
342
342
343
347
355
367
376
384
392
401
400
387
366
346
329
317
310
304
305
315
323
327
330
331
334
338
338
335
335
335
338
337
337
335
339
344
344
342
340
341
343
343
340
340
341
343
341
340
340
342
343
343
344
346
346
347
346
344
344
345
348
348
348
348
349
351
350
348
347
349
349
345
342
341
344
345
344
340
337
337
339
339
336
333
333
335
334
333
333
335
337
336
334
333
335
336
335
333
334
336
337
336
334
336
337
337
336
335
335
336
337
336
334
334
336
338
338
335
335
337
339
338
336
337
338
339
338
335
336
337
339
339
338
338
338
340
338
337
336
337
338
339
338
338
338
340
339
337
337
339
341
339
338
338
339
341
340
338
338
340
341
342
341
339
341
342
341
339
338
339
340
339
338
338
340
342
341
339
340
340
342
342
339
339
339
340
340
339
339
341
342
342
339
338
340
342
341
339
339
342
344
342
339
341
341
343
342
339
338
340
342
341
340
343
347
348
346
344
344
345
347
346
343
342
345
346
348
347
345
345
346
345
343
344
344
343
339
338
338
340
341
341
338
338
340
342
341
338
340
341
342
341
340
344
352
362
371
380
389
399
401
391
374
353
336
322
311
303
304
311
320
324
327
332
336
339
339
337
338
339
340
338
336
337
339
343
344
342
342
344
344
342
340
340
342
344
343
341
341
343
344
343
344
347
349
350
348
346
346
347
348
346
346
348
352
352
350
348
348
349
349
345
341
341
344
346
345
342
340
340
340
340
337
334
334
336
335
334
333
335
337
335
333
333
335
338
337
335
336
338
339
338
336
336
337
338
337
336
337
337
337
336
336
335
337
339
338
335
335
336
338
337
335
335
337
338
337
335
336
337
338
337
336
338
338
339
338
337
337
339
340
340
337
337
339
341
338
336
337
338
339
338
337
337
339
340
339
338
338
339
340
338
337
338
340
342
340
338
338
340
341
340
339
339
341
342
342
339
339
341
342
340
339
339
341
342
340
338
338
341
342
341
338
339
341
342
340
338
339
341
341
340
338
338
342
343
340
339
340
342
342
340
339
342
346
348
346
343
343
345
346
345
342
343
345
346
346
347
345
345
345
343
343
343
344
342
338
336
337
339
340
339
336
337
340
341
338
337
337
340
341
340
339
342
349
361
369
378
387
397
401
394
378
360
342
325
311
304
304
309
317
323
326
330
334
337
336
336
336
338
339
337
337
337
339
342
343
342
342
344
344
343
341
342
344
343
341
338
341
342
343
341
342
345
347
348
346
346
345
347
348
346
346
349
352
352
351
348
349
351
352
347
343
343
345
347
344
342
340
340
340
339
339
337
336
336
334
333
334
336
337
337
334
335
337
337
335
333
334
337
338
335
332
334
337
337
336
335
335
337
338
336
335
336
337
338
337
335
336
339
339
337
335
335
338
338
337
336
337
338
340
338
337
338
339
340
338
338
337
339
339
338
336
337
340
341
339
337
338
342
341
339
337
338
339
340
338
338
338
339
340
339
337
338
340
340
339
338
339
341
341
338
336
338
341
342
339
336
338
339
342
339
338
339
341
341
340
338
339
342
342
341
339
340
342
342
339
338
339
342
342
340
339
340
340
340
339
339
340
341
340
338
337
339
344
346
344
342
343
346
346
344
342
343
345
346
344
346
347
345
344
342
343
343
345
343
339
336
338
340
341
339
337
338
340
340
338
338
340
341
339
337
337
342
348
356
365
373
383
395
401
397
383
367
349
330
315
306
304
309
315
320
324
330
335
337
337
336
337
338
338
336
335
336
338
341
343
342
342
343
342
342
340
341
343
344
342
340
341
344
344
341
341
346
348
347
344
343
344
347
347
345
343
347
351
352
349
347
348
350
351
347
343
343
345
345
344
343
343
342
340
338
338
338
337
335
333
333
335
336
335
334
333
334
336
336
334
333
335
337
337
335
334
336
338
337
336
335
336
338
338
336
336
337
339
338
336
335
336
338
338
336
336
337
340
339
336
334
336
337
338
337
336
336
339
339
336
336
337
339
338
336
336
339
340
339
337
335
337
340
339
337
336
339
340
340
337
337
338
339
338
337
336
337
339
341
338
337
339
341
340
338
337
339
341
341
338
338
339
341
341
339
339
340
342
341
339
337
339
341
340
338
337
338
340
340
338
339
340
341
341
339
338
340
342
341
338
338
339
342
342
340
339
340
345
347
346
344
344
346
346
344
343
344
346
345
343
344
348
347
345
343
344
345
346
344
340
337
339
341
341
340
338
339
340
340
338
337
339
339
339
337
337
342
347
353
361
370
382
392
400
399
389
373
355
335
318
308
306
308
314
319
323
329
335
336
336
336
338
339
338
336
335
337
339
340
341
341
343
344
342
340
339
341
343
343
340
340
342
345
344
340
339
344
347
347
345
343
344
347
346
344
344
347
352
351
348
347
348
350
350
347
343
343
345
344
342
341
344
342
340
337
337
338
337
335
333
331
333
336
336
333
333
334
336
335
333
333
335
337
336
334
334
336
338
336
334
334
336
339
337
334
333
335
337
336
334
334
336
337
337
334
334
336
338
337
335
335
337
339
338
336
335
337
339
338
338
336
337
338
337
335
335
337
338
338
335
336
339
341
339
335
336
339
340
339
338
338
339
341
340
337
337
339
341
341
338
337
339
341
341
338
337
339
341
341
337
337
339
341
340
337
338
340
342
342
340
340
341
343
341
339
339
341
342
341
338
337
339
342
341
339
337
340
341
342
338
338
340
342
340
339
338
341
344
345
344
344
345
346
345
343
342
344
346
345
344
345
349
348
344
341
342
343
345
344
340
337
338
340
339
337
337
338
340
340
337
337
339
341
341
338
337
341
345
349
356
368
379
390
397
398
392
380
362
341
322
310
306
307
311
315
321
328
334
335
335
336
339
339
338
336
337
338
340
339
340
342
343
344
343
341
341
342
343
343
341
341
343
344
342
339
340
346
349
351
347
346
348
349
348
345
344
347
351
352
350
348
349
350
349
346
344
344
346
343
341
341
343
341
339
336
337
339
338
334
331
332
334
335
335
333
333
335
336
335
333
334
336
337
335
333
333
336
337
336
333
335
336
337
336
334
335
337
338
337
334
335
338
338
337
335
335
337
339
338
334
334
338
339
339
336
336
337
338
338
336
336
338
339
338
337
337
339
339
338
336
336
338
340
338
338
338
339
341
340
337
337
339
340
340
338
338
340
341
341
338
339
340
341
340
338
339
340
341
340
338
338
341
342
340
338
338
340
342
341
340
340
342
342
341
339
340
341
341
341
339
339
341
342
340
339
339
342
342
341
339
340
341
342
341
339
341
342
344
346
345
345
346
347
346
343
343
345
347
345
342
344
348
348
345
342
343
345
346
344
340
338
339
341
340
339
339
342
343
341
339
337
339
342
341
339
339
342
345
348
354
365
377
386
394
398
396
386
368
347
326
312
307
306
308
312
319
326
333
333
333
336
339
338
337
336
337
338
339
336
337
339
344
345
344
341
341
343
343
342
341
342
343
344
343
341
341
345
348
348
345
345
347
348
346
345
345
346
350
350
348
348
350
350
348
346
345
345
346
344
342
342
344
342
338
335
337
339
339
335
332
332
335
336
335
333
334
337
337
335
333
334
336
338
335
333
335
338
338
335
333
334
338
338
336
335
336
339
340
338
335
335
337
338
336
335
336
337
339
337
336
337
339
338
337
335
337
338
339
337
335
335
337
338
337
335
337
339
339
338
336
338
339
340
338
337
341
341
341
339
337
337
339
340
338
338
339
341
341
340
338
338
340
341
339
337
338
341
342
339
337
337
340
341
339
338
339
340
340
338
337
338
341
341
340
338
339
342
341
339
338
339
341
342
340
338
339
342
342
339
338
339
340
341
339
339
340
342
342
344
344
345
347
347
344
342
344
347
347
345
343
344
348
349
345
341
343
345
346
343
342
339
339
339
339
337
339
341
340
338
336
337
340
341
339
337
338
341
344
346
351
363
374
384
391
396
398
392
375
353
332
316
309
306
305
309
317
325
330
332
332
335
339
340
337
335
337
340
339
337
338
341
344
344
341
339
340
343
344
342
340
340
342
342
340
340
341
344
346
345
344
345
348
348
346
344
344
347
349
348
347
348
349
349
347
345
346
345
344
342
341
342
345
343
338
335
336
338
338
335
333
333
336
335
334
334
334
336
335
334
334
336
337
337
334
332
334
337
337
334
333
336
337
337
335
334
335
337
338
337
335
336
338
337
336
334
336
338
339
335
335
337
340
339
337
336
338
339
338
337
336
336
339
339
338
336
337
339
338
337
336
338
339
339
338
336
337
340
340
338
336
338
340
339
337
337
338
341
341
339
337
338
340
340
339
337
338
341
340
337
336
339
341
341
339
339
341
341
341
339
339
339
341
342
339
337
338
341
341
339
338
339
342
342
341
339
340
341
341
339
338
340
342
343
341
339
340
342
341
342
343
346
348
347
344
343
344
346
346
345
343
345
349
351
346
341
343
345
345
344
344
342
341
340
339
338
339
341
341
339
338
340
341
341
339
337
338
341
342
343
347
358
370
378
385
394
399
396
380
359
338
322
314
306
303
306
315
324
329
330
331
335
339
340
337
336
338
339
338
336
337
340
344
344
341
340
341
343
344
342
340
341
344
344
342
341
341
343
345
345
346
349
349
347
344
344
345
348
348
349
348
350
351
351
348
346
347
347
344
341
340
342
344
344
340
337
337
339
338
335
333
332
334
335
334
332
334
336
337
334
333
335
336
335
333
333
335
337
336
334
334
336
337
337
335
336
335
337
336
334
334
336
339
338
336
335
336
338
338
336
335
337
339
337
336
336
338
340
340
337
337
338
340
339
337
336
338
340
339
338
336
339
340
339
337
336
338
339
338
336
336
339
340
340
338
337
338
340
340
339
337
338
340
340
338
338
340
342
340
338
337
338
341
341
339
338
339
341
341
338
338
339
340
339
339
339
340
343
342
339
337
339
341
341
339
339
340
342
342
339
339
341
342
340
339
339
340
341
340
340
341
345
347
346
343
343
345
347
346
344
344
345
347
348
346
344
345
347
345
343
342
341
340
338
337
336
339
341
340
338
337
339
341
340
338
337
338
340
340
340
344
355
367
376
385
393
400
399
386
366
344
327
315
308
304
306
315
323
327
329
331
336
339
339
337
336
338
339
338
337
337
340
345
344
342
340
341
346
343
341
340
341
344
343
341
341
342
345
345
345
345
347
348
347
344
344
345
347
347
349
349
351
351
350
347
346
348
349
345
341
342
344
346
345
341
338
339
341
340
335
333
334
336
335
334
334
336
337
336
332
333
335
337
337
335
334
334
334
334
332
332
336
338
336
334
333
335
336
336
335
335
337
338
338
335
335
337
338
338
336
336
338
340
338
335
336
338
340
339
337
337
338
339
338
337
336
338
340
340
337
336
340
342
341
338
337
339
341
340
338
338
340
341
339
338
338
340
342
340
338
338
341
342
341
338
338
340
343
341
339
339
341
342
341
339
339
339
341
340
338
339
341
342
341
339
338
339
341
340
338
339
340
341
339
338
338
340
342
340
338
337
340
342
340
337
337
339
341
340
338
340
344
346
346
343
343
345
346
344
341
342
345
347
347
345
344
345
345
343
342
342
343
341
338
338
338
340
341
340
338
338
339
340
340
338
338
340
341
339
340
344
353
364
374
381
390
399
401
391
372
351
334
319
310
304
305
313
320
324
328
333
336
339
338
336
336
338
339
338
336
337
339
343
344
344
341
343
344
343
340
339
343
345
343
341
340
342
344
344
343
345
347
347
345
345
345
346
348
347
347
349
351
352
350
348
348
350
350
344
342
342
344
345
344
341
339
339
339
338
336
334
334
335
334
333
333
336
336
336
333
334
335
337
335
333
334
335
337
336
334
334
336
336
335
333
335
337
338
337
335
334
336
338
337
335
335
337
338
337
335
335
337
338
337
335
336
338
340
337
334
336
338
339
337
335
337
339
340
338
337
338
339
341
339
336
337
340
340
338
335
336
339
341
339
337
338
340
341
339
338
337
340
341
340
338
338
341
342
340
338
337
339
341
340
338
338
341
341
339
337
338
340
341
339
338
338
341
342
340
337
338
341
342
340
339
339
341
342
341
339
339
341
342
340
338
341
343
343
341
340
341
346
347
345
343
343
345
347
345
343
344
345
345
345
345
344
345
345
344
342
344
345
343
339
338
338
341
342
340
338
339
341
342
340
340
340
341
340
339
339
342
351
360
369
378
388
398
401
393
378
358
341
324
312
305
305
311
319
323
326
331
335
338
337
335
335
338
339
338
336
337
339
342
344
342
342
343
344
343
341
341
343
344
342
340
340
341
342
341
342
344
347
348
346
344
345
347
348
345
346
349
353
353
351
347
348
349
350
345
341
341
344
346
345
342
340
340
340
339
337
336
335
335
334
333
333
334
335
334
332
333
336
338
335
333
336
337
338
336
335
335
338
338
337
335
336
338
339
337
335
335
338
340
338
334
335
337
339
337
335
336
338
338
336
334
335
339
339
337
335
337
340
340
338
336
337
339
339
338
335
337
339
340
337
336
337
339
339
337
336
336
339
340
339
337
338
341
341
338
337
339
341
341
339
337
339
341
342
339
337
339
340
341
338
337
339
341
341
339
338
339
341
341
340
339
339
341
341
339
338
339
342
342
339
338
339
342
342
339
337
338
342
342
340
339
340
341
342
340
340
342
346
348
346
343
345
347
347
344
343
343
345
346
345
347
347
347
346
343
341
344
345
343
339
337
338
340
341
340
339
339
341
342
340
338
339
341
342
341
340
344
350
357
365
374
385
395
400
395
382
365
347
329
314
305
305
309
317
320
324
330
335
337
337
336
337
338
337
335
334
336
338
340
340
340
340
341
342
341
339
340
342
342
342
339
340
342
343
342
342
345
348
348
345
343
344
345
346
345
344
348
352
352
349
347
348
350
350
346
342
343
345
345
343
342
340
340
340
337
337
337
336
334
332
332
334
336
336
335
334
335
336
337
335
333
334
337
337
335
333
334
336
337
336
334
336
338
338
335
335
336
338
338
337
336
337
339
339
336
335
336
339
339
337
336
336
339
338
336
335
336
338
338
336
337
337
339
339
338
336
337
340
339
336
337
339
341
339
338
336
337
340
340
339
338
339
341
341
339
338
341
341
340
339
338
339
341
341
338
337
339
342
340
338
337
339
341
341
338
337
339
341
340
340
340
340
341
340
339
337
339
341
341
339
338
339
342
341
339
338
339
341
341
339
337
339
340
340
339
339
341
345
346
345
343
343
344
345
343
343
344
346
346
345
346
346
346
344
341
341
343
345
343
339
337
339
341
340
338
337
339
341
341
338
337
338
340
340
338
337
341
347
353
360
370
382
392
400
398
387
371
354
334
317
305
304
308
314
318
323
329
335
335
336
335
336
338
338
336
334
336
339
340
341
342
342
343
342
341
340
341
344
342
341
340
341
344
342
340
341
346
350
348
345
344
346
348
347
344
343
348
352
352
350
348
349
351
350
346
342
343
346
345
343
342
343
341
339
337
336
337
336
334
332
333
335
337
336
335
334
336
338
337
333
332
335
338
336
334
334
336
337
336
334
334
336
337
336
334
336
338
340
338
336
335
337
339
338
336
335
337
339
338
335
335
