0
348
349
345
343
344
345
344
340
338
340
340
334
333
334
334
333
334
336
336
333
334
336
337
336
336
337
336
335
335
337
337
336
336
338
338
336
337
338
337
336
336
338
338
337
338
339
338
337
339
340
337
336
337
339
339
337
338
339
338
337
338
339
338
337
337
339
338
337
338
339
339
338
338
339
339
337
337
339
337
336
339
340
339
338
339
341
340
338
339
340
341
340
340
342
342
340
340
341
341
340
340
341
340
339
340
341
341
339
340
341
340
339
341
341
340
341
344
346
344
343
343
346
346
344
344
346
347
343
342
343
343
341
342
339
337
337
338
340
339
338
340
341
340
337
338
340
340
343
353
366
377
387
398
398
381
357
334
317
306
305
312
321
327
331
336
339
338
336
337
339
338
337
340
344
343
341
341
342
342
342
341
343
342
341
342
344
345
346
347
347
345
345
346
346
346
349
350
350
350
349
349
349
345
342
344
345
344
339
337
338
338
335
334
334
334
333
334
336
334
333
334
337
335
333
335
338
336
334
335
337
336
334
336
337
336
335
337
338
336
335
336
337
337
335
337
338
337
337
337
339
338
336
336
338
338
338
339
340
337
337
338
340
339
336
338
340
339
338
339
340
339
338
340
340
339
339
341
342
339
339
340
341
341
338
339
342
340
340
341
342
340
340
342
343
342
340
341
342
340
340
341
342
341
341
342
342
341
341
342
343
342
341
341
342
340
341
345
348
347
344
344
346
345
343
345
346
349
346
345
345
344
343
345
344
339
337
339
340
339
339
340
340
339
339
340
340
340
342
350
363
374
383
397
401
388
365
341
321
307
303
310
319
326
330
335
339
338
338
338
339
337
335
338
342
343
342
343
343
342
342
343
343
341
340
342
344
344
346
348
348
346
345
347
348
347
348
353
353
351
349
351
350
344
342
345
346
344
341
339
340
339
336
335
334
333
333
335
336
334
334
336
337
335
334
336
336
335
334
335
337
335
335
336
337
336
335
337
337
335
335
338
340
337
337
337
337
337
335
338
339
338
337
338
339
339
338
339
338
337
337
338
339
339
338
340
341
339
337
339
339
337
337
340
340
338
337
339
341
339
338
339
339
339
339
340
340
340
340
341
342
339
339
341
341
339
339
341
342
340
338
341
342
340
339
340
341
340
340
341
342
340
340
343
343
342
341
346
349
348
345
346
345
345
344
346
346
346
347
346
346
344
343
346
343
339
338
340
340
339
339
340
340
340
338
340
341
340
343
348
360
370
381
394
400
393
371
348
325
309
305
309
317
323
330
336
337
337
336
337
339
338
336
338
341
341
340
342
343
341
341
343
343
341
342
344
345
342
345
348
348
346
345
347
348
346
349
351
351
349
349
349
350
346
342
344
344
343
342
339
340
338
337
335
336
334
335
336
336
336
336
337
337
335
334
335
336
337
336
338
338
336
336
338
338
336
336
338
339
338
337
338
339
337
337
338
338
336
336
339
340
336
336
339
339
337
337
340
342
339
339
340
340
339
338
341
342
339
339
340
341
338
339
341
340
338
338
340
341
340
340
341
341
339
339
341
342
341
340
340
340
339
339
341
341
339
340
341
340
339
340
341
341
340
341
342
342
340
339
342
343
341
340
342
341
339
339
345
348
346
345
345
347
345
344
345
345
344
347
346
344
342
343
345
344
338
337
340
340
339
341
343
341
339
339
341
341
340
342
347
355
365
378
392
400
396
378
356
331
313
307
308
314
321
328
335
337
338
338
340
340
338
339
340
343
342
344
345
345
343
343
343
343
342
342
343
343
343
345
349
349
345
346
349
348
346
347
352
353
351
351
352
352
348
345
345
345
343
343
341
340
339
340
338
336
334
335
336
336
333
334
335
336
335
336
338
338
336
336
338
337
336
335
336
338
335
335
338
338
337
336
338
338
337
337
338
338
336
337
340
339
337
336
338
338
337
338
339
339
338
338
339
339
338
338
340
339
337
338
340
339
338
338
339
338
337
337
340
339
339
340
341
339
337
338
340
340
338
339
341
340
338
339
340
340
340
340
341
341
339
340
340
340
339
341
342
340
339
339
341
341
341
340
341
340
339
340
343
346
345
344
345
344
343
344
346
345
343
346
345
343
343
345
347
346
340
338
340
339
339
340
341
340
338
339
341
340
339
341
346
352
363
375
389
398
397
385
364
337
317
306
305
311
318
325
332
335
336
338
340
338
338
340
339
339
341
342
343
342
342
343
344
342
340
341
343
342
341
344
348
348
346
345
347
346
344
345
349
350
350
350
350
350
347
344
343
344
344
344
343
339
337
338
338
334
333
335
336
335
334
335
336
336
334
335
336
336
335
335
337
337
335
336
338
337
335
337
340
338
336
336
338
337
336
337
339
337
336
338
340
339
337
337
340
338
337
339
340
339
337
339
341
339
337
337
339
338
337
338
339
338
337
337
339
339
338
338
340
340
338
341
341
340
337
339
342
340
339
339
341
341
338
339
341
341
339
340
341
340
339
340
340
340
339
341
343
343
341
341
342
341
340
340
342
341
339
340
342
344
344
346
346
344
342
344
346
344
343
346
347
343
341
343
344
344
339
338
340
338
338
339
341
341
338
339
340
339
339
340
344
348
358
373
386
395
399
389
371
343
320
309
308
310
317
325
332
334
335
337
338
337
336
337
338
337
339
343
345
342
342
342
344
342
342
343
344
342
341
344
347
346
344
345
347
345
344
346
350
350
348
349
350
348
347
346
343
343
343
343
343
338
337
339
340
334
333
334
335
333
334
335
336
335
333
334
336
335
335
336
337
335
334
336
338
337
335
336
337
336
335
335
337
337
336
336
338
336
336
336
337
337
335
335
338
337
337
338
339
337
336
337
339
338
337
338
341
339
337
339
341
339
337
339
340
338
337
337
340
340
339
339
339
337
337
340
340
339
338
338
339
338
337
340
341
340
337
339
340
339
338
339
341
340
339
340
341
340
339
340
341
339
338
339
341
340
339
340
341
342
344
346
345
344
342
345
346
346
344
347
349
345
343
344
346
345
340
339
340
339
338
339
339
338
338
340
340
338
337
339
344
347
356
369
381
391
398
393
375
348
325
310
306
306
313
324
331
332
334
337
339
336
335
337
338
336
337
342
344
342
340
341
343
340
340
342
342
341
341
342
346
347
345
346
346
346
346
347
349
350
351
351
351
349
348
347
345
343
342
344
344
340
339
340
340
335
332
334
336
335
334
336
338
337
336
338
339
338
336
337
337
336
336
338
340
337
335
337
338
338
336
337
338
337
336
339
339
337
337
339
338
337
337
338
339
338
337
338
338
337
335
338
340
338
337
339
340
338
337
339
340
338
338
341
341
337
337
339
340
339
338
339
339
337
337
340
341
339
338
338
339
338
338
340
341
339
338
340
342
339
339
340
341
339
340
341
341
340
340
341
342
340
339
341
342
340
339
342
342
343
345
346
346
344
344
346
346
344
343
346
349
346
344
345
346
344
343
340
339
338
338
339
340
339
338
340
340
338
338
341
344
346
353
367
379
390
398
398
382
355
332
316
307
305
311
322
328
332
335
338
339
337
336
338
338
337
337
342
344
342
342
344
344
341
341
344
344
341
341
343
346
346
346
347
348
346
346
348
348
348
349
352
351
349
349
349
345
343
343
344
345
340
337
339
339
335
333
335
335
334
335
337
337
335
335
336
335
335
336
337
337
334
335
337
337
334
334
337
337
334
335
337
337
335
335
337
337
335
336
338
338
336
336
337
338
336
336
338
340
337
336
340
338
336
336
339
340
338
338
340
340
338
338
340
341
337
337
339
340
338
338
339
339
337
337
339
340
338
337
340
341
340
339
341
342
340
340
342
341
338
339
342
342
340
340
342
340
338
339
341
341
338
339
341
342
339
339
340
340
340
343
347
346
344
345
347
346
344
343
345
348
345
343
344
346
343
344
341
338
338
339
341
340
338
339
341
342
339
339
340
342
344
352
365
377
385
395
401
387
363
337
319
309
304
309
320
328
331
334
338
339
337
337
339
339
336
337
343
344
341
340
344
344
341
341
343
343
341
341
343
344
346
347
347
346
343
344
346
348
349
349
350
350
349
349
350
345
342
342
344
344
341
340
340
339
335
333
334
335
334
335
337
335
333
333
336
336
335
335
337
337
336
337
338
339
336
336
338
338
335
336
339
339
337
337
338
339
337
338
340
339
337
337
339
339
337
337
339
339
338
338
340
340
338
339
340
339
338
338
340
340
339
339
342
340
338
338
341
340
337
338
340
341
339
339
341
340
338
339
340
339
338
338
340
340
339
338
340
340
339
339
340
340
339
339
341
340
339
340
341
340
338
339
341
342
340
340
341
340
340
344
348
346
344
344
347
346
344
344
347
347
347
345
344
344
343
343
342
339
337
339
340
340
339
339
341
340
338
339
341
340
342
348
359
371
381
392
400
392
369
345
323
309
303
306
317
323
327
331
336
337
336
336
338
338
335
335
341
343
341
340
342
341
340
341
343
341
339
342
345
343
343
346
347
346
344
345
347
345
345
348
351
349
347
348
351
346
341
342
344
344
341
339
339
338
336
334
334
334
332
335
336
334
334
336
336
335
333
335
337
336
334
336
337
336
335
335
337
336
335
336
337
336
335
336
337
335
334
336
338
337
336
337
339
338
337
338
339
337
336
338
339
339
338
339
340
340
338
338
339
337
336
337
339
339
337
338
339
338
338
339
342
340
338
339
340
339
338
339
340
339
338
339
340
340
339
339
341
340
337
338
340
340
338
339
341
341
339
340
341
339
338
340
342
341
339
340
341
340
339
343
347
347
344
345
346
345
344
345
346
347
348
347
345
344
344
346
343
339
338
340
341
340
340
341
341
340
339
340
341
340
340
345
355
366
378
391
400
396
376
353
330
313
303
306
315
322
328
333
336
337
336
338
338
338
337
338
341
342
341
342
344
343
341
342
344
342
341
343
345
343
344
347
348
347
345
347
347
345
345
350
352
349
347
347
350
346
342
343
345
343
341
340
340
339
338
336
335
335
335
337
336
334
333
336
337
335
335
336
337
336
335
336
338
336
335
337
339
337
336
337
337
336
335
337
339
338
336
337
338
337
337
338
338
337
337
338
339
337
337
338
339
338
336
337
338
338
335
337
339
339
337
339
340
338
337
338
339
337
337
339
341
339
337
338
340
340
340
339
340
339
339
341
341
339
338
340
342
340
339
341
341
340
339
341
340
339
339
341
341
339
339
341
341
339
339
340
341
340
339
342
346
345
344
344
346
344
344
346
346
345
345
346
345
343
343
345
343
338
337
340
341
340
340
340
340
339
339
339
341
339
339
345
355
365
375
388
399
397
383
359
335
315
305
305
312
318
324
331
335
336
336
337
337
337
336
337
338
340
341
342
343
342
341
342
343
342
342
343
343
341
343
347
348
346
346
347
346
345
345
351
353
350
349
350
351
347
343
343
344
343
342
341
340
338
338
337
335
334
334
336
334
332
332
335
336
335
335
336
337
335
334
337
336
334
333
336
335
334
334
336
337
336
335
337
337
336
336
337
337
336
336
337
338
335
334
337
338
337
337
339
338
337
337
338
339
336
336
338
340
339
337
339
338
337
337
338
339
337
336
338
339
337
336
338
340
338
338
338
339
338
337
339
340
338
338
340
340
339
340
341
342
340
339
340
341
339
338
339
340
338
337
340
341
339
338
340
341
340
340
342
347
345
343
344
344
343
343
345
345
344
346
348
345
343
343
345
344
339
337
339
340
338
338
339
341
339
338
340
340
339
339
343
350
360
373
385
395
397
386
368
341
319
308
306
311
317
325
332
335
336
337
338
338
336
335
337
338
339
342
343
344
342
340
342
342
341
341
342
342
340
342
347
350
345
344
347
347
345
345
350
352
349
348
350
350
347
343
343
343
341
341
342
340
337
338
338
335
332
333
336
337
335
334
335
336
334
334
338
338
335
335
336
336
335
336
338
338
336
335
337
336
336
337
338
338
337
337
338
338
336
336
337
338
337
337
339
339
338
339
340
339
337
337
340
339
338
339
340
340
338
338
339
340
338
339
340
340
339
338
340
340
338
338
341
341
339
339
341
341
339
339
341
341
340
340
341
342
339
339
341
340
340
339
342
342
339
339
340
341
339
339
341
340
339
340
341
339
338
339
341
345
344
344
345
345
344
344
346
345
343
345
350
347
343
344
346
346
341
339
340
340
340
340
341
341
339
339
340
340
340
340
344
348
357
370
384
394
399
393
375
351
326
311
307
308
314
322
330
334
336
338
340
338
337
336
339
339
340
342
344
344
343
342
343
343
342
343
344
345
342
342
346
348
346
347
347
348
345
346
350
352
350
349
350
351
349
346
345
345
343
343
345
341
338
339
340
336
332
333
336
336
334
334
337
336
334
335
336
336
334
335
337
336
335
336
338
337
335
335
336
336
336
337
339
338
337
337
338
338
337
337
339
339
337
338
338
338
338
337
339
339
337
339
340
339
337
339
340
340
338
339
341
340
339
339
339
339
337
338
341
341
340
339
340
340
339
340
342
342
339
339
341
340
338
339
341
340
339
340
342
342
341
341
342
341
339
339
341
340
339
339
342
341
339
340
342
342
340
340
343
344
344
345
346
345
344
344
346
346
345
345
349
347
343
344
344
344
341
339
340
339
337
338
340
339
338
339
340
340
337
338
343
346
353
365
380
391
398
397
382
356
331
313
307
306
313
321
328
334
333
336
338
337
336
337
339
338
339
342
344
343
342
343
343
343
341
342
344
343
341
341
346
348
346
346
347
348
345
346
348
351
349
349
349
349
347
346
343
343
342
344
346
340
336
337
339
336
332
334
335
334
333
334
335
334
334
335
337
336
334
335
337
337
336
336
337
337
335
336
338
337
336
338
338
337
337
338
339
338
336
338
339
338
335
337
338
338
336
337
337
337
336
337
339
338
337
338
340
339
337
339
340
339
337
338
339
338
338
339
341
340
338
338
339
339
338
339
341
339
337
339
340
339
338
338
340
339
338
339
341
339
337
339
341
340
338
339
341
341
339
341
342
340
337
339
340
339
338
339
341
342
343
346
347
345
344
345
346
345
344
345
350
347
343
344
346
344
342
340
338
338
338
339
340
338
338
340
342
341
340
341
342
344
350
363
376
388
396
399
387
363
337
318
309
305
310
319
327
332
334
337
338
338
336
337
338
337
336
341
343
342
342
342
343
342
341
342
343
341
341
341
344
346
345
346
346
346
345
346
347
349
350
351
352
348
347
348
347
344
342
343
344
342
338
339
341
337
333
334
337
336
334
335
337
335
335
336
337
336
335
336
337
335
336
337
338
337
336
337
338
337
335
336
337
338
337
337
338
338
337
338
338
337
336
337
338
337
336
339
340
338
337
338
340
340
338
339
340
338
337
339
340
339
338
339
340
339
340
340
340
340
339
340
341
340
339
340
340
339
339
340
341
340
339
340
343
341
339
340
341
341
339
340
341
340
340
342
342
341
340
340
340
339
338
340
340
339
338
340
341
341
343
346
347
345
344
346
346
343
343
345
349
348
344
343
344
343
342
340
339
338
339
339
341
339
338
339
340
340
339
339
340
342
348
359
373
383
393
399
391
370
343
322
310
304
307
317
325
330
332
336
338
339
337
339
339
338
337
342
345
344
342
344
344
342
341
342
344
343
342
343
345
346
347
347
346
344
344
347
347
348
348
351
350
348
348
350
347
344
343
344
345
341
338
337
339
337
334
336
335
334
333
335
335
334
333
335
336
334
334
336
336
334
334
337
337
336
335
336
338
337
336
337
339
338
337
338
337
336
338
338
339
338
337
340
340
339
338
339
339
337
336
338
339
337
336
337
338
336
336
338
339
337
338
339
339
338
338
339
339
338
338
339
338
338
339
341
340
338
338
340
341
339
338
340
342
339
338
340
341
339
339
341
341
339
339
342
341
339
339
340
340
339
339
341
341
339
338
340
340
339
341
345
344
343
343
344
345
344
343
344
346
346
344
343
344
343
344
343
340
338
339
340
339
337
338
340
341
339
339
340
341
343
347
357
370
381
392
401
397
376
351
329
313
305
306
315
324
328
333
338
341
339
337
338
338
337
336
340
344
343
343
345
344
342
342
343
343
342
342
343
343
345
347
348
348
345
345
347
347
347
350
352
352
349
350
350
346
343
343
345
346
342
339
339
339
337
334
333
335
334
334
335
335
334
334
336
337
335
335
336
336
334
336
337
337
336
336
338
336
335
335
338
337
335
335
338
338
337
337
338
339
336
337
338
338
337
337
338
338
336
337
340
340
337
337
339
339
337
337
339
340
338
338
340
340
339
339
341
341
338
338
340
340
338
339
341
340
339
340
341
340
338
339
341
340
338
338
341
341
339
340
341
341
338
339
341
341
339
340
342
341
339
339
341
342
340
340
342
342
340
341
346
346
345
344
346
346
344
345
346
346
349
347
345
344
343
344
344
341
338
339
342
341
339
339
341
341
340
340
341
341
340
345
354
366
376
388
400
399
382
358
336
317
307
305
313
320
326
333
337
338
336
337
339
339
337
338
342
344
342
343
344
343
341
342
343
342
341
342
343
343
345
348
350
347
345
345
347
347
345
348
351
350
348
349
351
347
342
344
345
344
343
340
338
337
336
335
335
334
333
333
335
335
335
336
336
335
333
335
336
335
334
335
337
336
335
335
336
336
334
336
337
337
335
336
338
336
335
337
338
338
335
337
338
338
337
337
338
337
336
336
338
337
336
337
339
338
337
338
340
339
338
338
339
338
337
338
340
340
338
339
341
340
338
339
341
341
339
341
341
340
340
340
341
340
338
339
341
339
339
341
342
341
339
341
343
342
340
341
342
341
339
340
342
340
339
340
342
341
340
342
347
347
344
344
347
346
343
344
346
346
348
348
346
344
343
345
346
342
337
338
340
339
339
339
340
341
339
339
341
341
339
344
352
362
373
385
395
398
386
366
341
321
306
303
310
318
323
331
335
336
335
335
337
336
336
338
339
341
341
342
343
341
339
341
343
341
341
342
343
342
342
346
349
347
344
345
347
346
344
348
351
350
348
349
349
347
344
344
344
345
343
341
340
338
338
337
335
333
332
335
335
334
334
335
338
335
334
335
337
335
334
336
337
335
334
335
336
335
335
336
338
337
335
335
336
335
336
337
338
336
336
338
338
338
336
337
337
337
336
337
338
338
337
338
340
338
336
338
339
338
337
338
340
339
338
339
339
338
337
340
341
340
338
340
342
340
338
340
341
339
338
340
340
339
338
339
341
339
338
339
341
340
338
339
341
340
338
340
342
340
339
340
342
341
341
342
342
341
340
342
345
346
344
346
347
345
343
345
345
344
346
349
347
343
343
344
345
341
338
340
341
339
338
338
341
339
339
342
340
338
337
342
348
358
370
383
395
400
391
373
349
325
309
305
308
315
322
330
334
336
337
338
338
337
336
338
339
339
340
342
344
342
340
342
342
341
340
343
343
341
341
347
348
346
345
347
346
345
344
348
351
350
348
349
350
348
345
344
345
344
343
343
340
337
337
339
336
333
333
335
336
336
334
335
337
335
334
336
337
336
335
336
337
336
335
337
338
338
337
337
338
337
336
337
338
336
335
337
337
337
337
337
338
337
337
338
339
337
336
337
338
337
337
338
338
337
337
338
339
337
337
339
340
338
336
339
340
339
338
339
339
337
337
338
339
338
338
339
339
338
340
341
340
339
339
340
340
338
338
340
340
339
339
341
340
339
340
341
341
337
338
340
340
338
339
340
342
340
339
341
346
345
344
345
346
344
344
345
345
344
343
349
347
343
342
345
346
342
338
339
340
340
339
340
340
338
338
339
340
338
338
342
347
353
366
380
391
398
395
380
356
330
312
306
307
312
319
327
334
334
335
337
338
335
336
338
338
338
341
342
342
340
341
343
341
339
339
341
341
339
340
345
348
346
345
346
347
346
345
348
351
350
349
350
350
349
348
346
345
343
343
344
341
339
339
340
337
334
334
337
337
335
335
336
336
335
335
336
337
335
333
335
337
337
336
337
337
335
335
337
337
335
334
336
336
336
335
337
338
336
336
338
338
338
336
338
338
337
337
339
339
337
336
338
339
338
337
337
338
337
337
340
339
338
339
340
340
337
338
341
340
338
338
341
340
338
339
341
341
338
340
341
340
339
339
341
341
339
338
340
340
338
340
341
341
340
340
341
341
340
341
342
342
340
340
341
340
340
339
341
343
346
345
346
345
343
343
346
345
344
345
349
348
344
343
344
346
343
339
339
339
339
339
341
341
338
338
340
341
338
338
341
344
350
362
376
388
397
398
386
361
335
316
307
306
309
319
329
333
332
335
338
338
336
337
339
339
337
341
345
344
342
342
344
343
343
342
344
343
341
342
346
348
346
345
346
346
344
345
346
349
348
348
350
351
348
347
345
343
342
344
344
342
337
337
339
337
332
332
334
335
333
334
335
335
333
333
336
336
334
335
336
336
335
336
337
337
334
335
338
337
334
335
337
338
335
336
338
337
336
336
337
337
336
338
339
338
336
337
340
338
337
337
339
338
336
337
340
339
338
339
339
339
338
338
340
339
337
338
340
340
338
337
340
340
338
339
341
341
340
341
342
340
340
340
341
341
339
339
340
340
339
339
340
340
340
340
342
340
339
340
341
341
339
340
341
340
339
340
342
342
344
345
345
344
343
344
346
345
343
344
349
349
343
342
344
346
343
339
338
338
338
340
341
340
339
339
341
341
340
340
341
344
348
358
372
385
393
399
391
369
341
321
310
304
307
316
326
330
332
336
340
338
336
336
338
337
336
340
343
342
341
341
342
342
340
341
343
343
340
342
344
346
345
346
347
345
344
346
347
348
348
350
351
349
347
348
346
344
342
342
345
344
340
338
341
339
335
334
336
335
334
335
336
336
334
335
337
335
333
334
336
336
335
336
336
336
335
336
337
337
336
336
337
336
335
336
338
337
335
336
337
338
335
337
339
338
336
337
339
339
338
338
339
337
336
338
339
339
338
337
338
338
337
338
339
338
336
338
340
339
337
338
340
339
338
339
340
340
339
339
340
339
337
339
341
340
340
340
341
340
339
341
342
340
338
340
342
340
339
340
342
342
339
340
341
340
338
339
341
340
342
345
346
344
342
344
346
345
342
342
346
348
344
343
344
343
342
340
339
337
338
340
341
339
339
340
341
339
338
340
340
341
345
356
370
380
390
400
396
376
349
328
314
306
305
314
323
328
332
335
337
337
337
338
338
337
335
339
344
344
341
342
342
342
340
341
342
342
341
341
342
345
347
348
347
345
343
345
347
348
349
350
350
349
348
348
347
343
341
344
345
342
337
337
339
337
333
333
335
335
334
335
336
334
333
334
336
334
333
335
336
336
335
336
338
335
334
335
337
336
335
336
337
336
335
337
338
337
335
338
340
338
337
338
340
339
337
337
340
339
338
338
339
337
337
338
339
338
338
340
340
338
337
339
339
338
338
339
340
338
338
340
340
338
338
339
340
339
338
340
341
340
339
339
341
340
338
339
340
340
339
341
341
340
339
340
341
340
339
340
341
338
339
340
341
340
340
342
342
341
342
347
347
345
344
346
347
345
344
345
346
347
345
345
345
343
342
342
340
338
338
341
341
339
338
339
339
337
337
340
340
339
343
353
368
376
388
399
398
381
356
333
315
305
304
312
320
325
331
336
338
337
338
338
338
337
336
339
343
342
341
343
343
343
342
343
343
342
341
342
342
344
346
347
347
345
345
346
346
345
349
352
352
349
349
350
349
344
343
345
345
343
340
338
339
338
335
334
335
335
333
335
336
334
333
335
335
335
334
335
335
334
335
336
336
335
334
336
336
335
335
337
337
334
335
337
337
336
336
338
337
335
335
337
337
335
335
337
337
336
336
337
338
337
337
338
340
337
337
339
339
337
337
338
339
337
338
339
340
338
338
339
340
339
339
341
340
338
338
339
340
338
338
340
340
340
339
340
340
339
338
339
340
338
339
340
341
339
338
339
340
338
338
340
341
338
338
339
340
340
340
346
347
345
344
345
345
343
342
345
345
347
345
344
344
343
343
344
341
338
338
341
340
339
339
340
340
339
338
340
340
338
342
352
362
372
384
396
400
385
364
340
319
306
303
310
318
323
330
335
338
336
336
337
337
336
337
339
341
340
340
342
342
340
341
343
343
341
341
342
341
341
344
347
347
345
345
346
346
344
347
350
351
347
347
349
348
343
342
344
345
343
341
339
339
338
337
336
336
333
333
335
335
333
333
334
335
334
334
335
335
334
335
337
336
334
335
336
336
334
335
337
338
335
335
337
337
336
336
337
337
336
337
338
337
336
336
338
338
335
335
337
338
336
337
338
338
337
336
338
338
338
338
339
338
336
337
339
338
337
338
340
339
338
338
340
340
338
339
339
339
338
338
339
340
338
338
340
339
338
339
339
340
339
338
339
339
338
338
340
339
338
338
340
340
338
338
342
341
339
339
344
345
344
343
345
344
343
344
345
344
344
346
345
344
341
341
344
341
337
337
339
338
337
338
340
341
340
340
341
340
338
341
349
359
370
383
395
400
392
373
348
324
309
305
309
316
323
330
335
337
336
337
338
338
336
337
338
340
342
342
342
341
339
340
342
341
341
340
341
341
340
344
348
348
344
344
346
345
343
346
351
350
348
348
350
349
344
343
345
345
343
341
339
337
336
336
334
334
334
334
335
334
333
334
336
335
333
334
337
336
335
336
337
337
335
336
336
336
335
336
337
337
334
335
338
337
335
335
337
337
335
335
337
337
336
337
337
336
336
336
338
337
336
337
338
336
335
337
339
338
338
338
339
338
337
337
339
338
337
338
339
338
337
339
340
339
339
339
340
339
337
339
340
339
337
338
339
339
337
339
341
340
338
339
341
340
338
339
341
341
339
339
340
340
339
339
340
339
338
339
345
346
344
344
345
344
344
343
344
343
343
348
348
344
342
343
345
342
338
339
343
341
338
338
341
339
338
340
340
339
338
340
346
354
366
379
391
398
394
378
355
330
311
305
307
312
319
327
334
335
335
336
337
337
336
337
339
339
342
342
342
341
340
343
343
342
341
341
342
341
340
345
348
347
346
346
346
345
343
347
351
350
348
349
350
349
345
342
342
344
342
342
340
337
336
337
336
333
332
334
336
334
334
335
336
334
332
333
336
335
334
335
337
336
335
336
336
336
335
336
337
335
334
335
336
335
334
336
337
336
334
336
338
337
336
338
338
337
336
336
337
335
335
337
338
336
335
337
339
337
336
339
339
338
337
338
338
337
336
338
341
340
338
340
340
340
338
339
339
338
337
340
341
339
338
339
340
339
339
340
341
341
340
341
341
339
338
339
340
339
338
339
340
341
339
340
341
341
339
340
342
344
344
345
347
345
344
345
346
344
342
347
348
342
342
343
344
342
337
338
339
338
338
340
341
339
338
339
341
338
338
341
345
351
362
377
389
397
397
384
362
335
315
307
304
309
318
326
333
334
336
338
338
336
336
338
339
339
341
343
343
342
342
343
343
341
341
343
342
340
339
343
346
345
344
345
347
345
344
346
351
351
349
349
350
349
347
344
343
342
340
343
341
337
336
338
337
332
331
333
334
333
334
335
335
334
334
335
335
334
334
335
336
335
334
336
337
335
334
336
337
336
335
337
337
336
336
337
338
337
335
337
337
335
335
337
337
335
336
338
338
336
336
338
338
337
336
337
338
337
337
338
340
338
337
339
340
338
336
337
338
338
337
339
340
338
337
339
339
337
338
339
339
338
338
338
339
338
338
340
341
338
337
338
339
337
337
340
342
339
338
340
341
340
339
340
340
339
339
341
343
345
346
346
346
344
343
345
345
344
343
347
348
343
341
344
344
342
338
339
339
338
338
340
340
337
337
339
339
338
338
340
343
348
360
373
385
394
398
390
368
341
320
308
304
307
315
324
331
332
334
337
337
335
335
337
337
334
338
343
343
340
339
341
342
340
341
342
343
341
340
343
347
346
345
346
346
345
343
346
348
350
350
350
349
347
347
346
343
341
342
344
342
337
336
339
339
333
331
333
335
333
334
335
336
334
334
335
336
333
334
338
337
336
335
337
337
336
336
337
336
334
335
338
337
335
336
337
337
335
336
338
338
336
335
338
338
336
336
337
337
336
337
338
339
338
337
339
338
336
337
339
338
336
336
339
340
339
339
339
340
338
339
341
341
339
338
341
340
337
337
339
339
338
338
339
339
337
337
339
339
339
339
340
340
339
339
340
341
338
338
340
340
338
339
341
341
340
340
341
340
341
344
345
346
343
343
345
345
343
343
346
348
343
342
344
344
342
340
340
339
338
338
341
341
338
338
340
340
338
338
340
342
346
355
370
382
391
398
393
374
348
326
312
305
305
313
323
330
332
335
338
337
335
336
337
337
336
339
343
343
340
341
343
343
340
340
341
341
340
340
343
345
346
346
347
345
344
345
346
348
349
349
350
349
348
348
346
342
341
342
344
342
337
336
340
339
333
332
334
334
333
333
335
335
333
334
335
335
334
334
336
336
334
334
336
336
335
335
337
336
335
335
336
335
334
336
337
335
335
336
337
336
335
336
338
337
335
335
338
336
336
336
338
337
336
337
337
337
335
336
337
337
335
336
338
337
337
338
338
339
338
339
340
338
337
338
340
339
338
338
340
341
340
339
340
339
338
339
340
339
338
339
340
339
337
338
340
340
339
339
341
340
339
340
341
341
339
340
343
341
341
344
347
345
343
344
346
345
344
344
346
348
345
343
344
344
342
342
340
339
337
338
340
340
339
339
340
339
338
338
340
341
343
352
365
377
387
398
397
379
353
331
315
306
304
311
321
326
331
335
338
337
334
336
337
337
336
338
342
342
340
341
342
341
340
341
342
341
340
342
343
344
345
346
347
346
345
346
346
348
350
351
353
350
348
348
349
344
341
343
345
344
339
337
339
338
334
333
334
335
333
334
335
334
333
334
336
335
335
336
337
336
335
335
336
335
334
336
337
335
334
336
337
337
335
336
337
337
336
338
339
337
337
338
338
336
335
337
339
337
336
338
339
338
337
338
339
338
338
338
339
337
337
338
340
338
337
339
340
338
337
339
341
338
337
338
340
338
337
340
340
338
336
339
341
339
339
340
342
340
338
340
340
338
338
340
341
339
339
340
342
339
339
342
343
339
338
340
341
340
340
345
346
345
344
346
346
344
342
343
345
346
344
343
344
343
342
343
340
337
336
339
340
339
339
339
339
338
337
339
340
339
342
350
363
374
385
397
400
385
361
338
318
306
304
310
319
324
329
334
337
337
336
337
337
337
335
337
341
341
340
340
342
341
340
341
341
341
341
342
342
342
344
346
346
345
344
346
346
344
346
350
350
347
346
347
348
342
341
343
344
343
339
337
337
338
335
334
334
333
333
336
336
333
333
335
336
334
334
335
336
334
333
336
337
336
334
335
336
335
335
337
337
335
334
336
337
336
335
336
338
337
337
338
338
337
336
338
339
337
336
338
338
336
335
338
340
338
337
338
339
337
337
339
340
337
337
338
339
337
338
339
339
339
338
340
341
340
340
341
341
339
339
341
341
339
338
340
341
340
339
340
340
338
338
340
341
339
339
341
341
339
338
341
341
339
339
341
341
339
339
344
347
346
343
345
346
344
343
346
345
346
347
346
345
343
343
345
342
338
337
340
340
338
338
339
339
338
337
340
341
338
341
348
360
371
383
395
400
391
371
346
324
309
304
309
317
323
329
334
337
337
337
339
340
338
337
338
341
341
341
342
342
340
339
341
342
340
339
341
341
340
343
346
346
344
344
346
347
345
347
350
350
349
347
348
349
344
341
343
343
342
341
339
338
337
336
335
334
332
334
335
333
332
332
334
336
334
334
335
336
334
334
336
336
334
334
337
336
335
335
337
337
336
335
337
338
336
336
337
337
335
337
337
337
336
337
338
338
336
336
338
338
336
336
337
338
336
337
338
337
337
337
339
339
338
338
340
339
338
338
339
340
339
337
339
340
338
338
340
340
337
337
339
339
337
337
340
341
338
338
339
339
338
338
341
342
340
340
343
342
340
340
342
342
339
340
341
341
338
340
344
346
344
343
345
345
343
343
345
345
344
347
346
344
343
343
346
343
338
338
339
340
339
338
341
339
338
338
339
338
337
341
347
355
366
378
391
399
393
376
352
329
311
304
308
315
321
328
333
336
336
336
337
338
336
336
338
338
340
341
343
343
341
341
342
343
341
341
342
341
340
343
348
347
344
343
346
346
345
347
351
351
349
349
351
350
345
343
344
344
343
343
340
338
337
338
337
334
333
334
336
336
334
335
336
335
334
335
337
336
335
335
336
336
334
335
337
338
336
336
338
337
336
335
337
336
335
335
336
337
335
336
336
337
336
335
338
339
336
335
337
337
336
337
338
337
336
337
339
338
337
337
340
340
338
338
340
339
337
338
339
340
338
338
340
339
338
339
340
340
338
338
340
339
339
340
341
339
338
339
341
340
338
339
340
338
338
338
340
339
338
339
341
339
337
339
341
340
338
339
342
344
344
344
345
344
342
343
345
345
345
347
347
344
341
341
343
342
337
337
339
339
337
338
340
340
339
339
340
340
339
340
345
352
363
376
388
397
395
382
359
334
314
305
307
310
317
325
332
334
335
336
337
336
335
336
338
338
340
342
344
341
340
341
342
340
339
340
341
340
339
341
346
346
344
346
346
346
343
345
349
350
348
348
350
349
346
343
344
344
342
344
342
337
336
338
337
334
332
334
335
334
332
334
335
335
334
335
336
335
333
335
336
335
334
336
338
336
334
335
336
336
335
335
336
336
335
335
337
337
335
337
339
338
336
337
339
339
337
337
339
339
337
339
340
339
337
338
339
338
337
338
340
338
337
337
339
339
337
338
339
339
338
340
340
338
336
338
341
339
337
338
340
339