0
340
338
338
345
350
357
365
376
386
395
400
395
383
368
349
329
314
305
304
309
315
318
324
331
335
336
335
336
339
339
338
336
337
338
340
340
340
342
344
345
343
340
341
343
345
343
341
340
342
343
341
340
342
348
349
346
343
345
347
349
348
346
346
350
353
351
350
349
351
351
349
345
343
343
345
344
342
341
342
341
339
338
338
339
337
334
332
333
335
337
335
333
333
335
336
335
333
333
335
337
336
334
334
336
337
336
334
335
336
337
336
334
335
338
338
336
335
335
337
339
337
335
335
338
339
338
336
336
339
340
339
336
337
338
339
338
336
335
337
340
338
337
337
339
341
340
336
336
338
340
339
338
337
339
341
340
338
338
340
341
340
338
338
341
342
340
338
339
341
342
340
337
338
341
343
340
337
337
340
342
341
337
338
342
342
341
338
338
341
343
342
340
340
341
341
340
338
339
342
344
343
340
340
344
345
343
340
340
343
344
342
341
341
344
347
347
345
344
346
347
346
343
343
346
348
346
344
346
349
348
346
342
342
345
346
343
338
336
338
341
341
339
340
341
341
341
340
338
340
342
341
338
338
344
348
353
360
371
383
394
399
399
389
374
356
336
317
307
305
308
312
317
323
331
336
336
335
336
338
340
338
338
338
339
339
339
341
341
344
344
343
341
341
344
345
343
340
341
342
345
345
341
342
348
351
348
345
345
347
348
346
345
344
348
352
351
349
348
350
353
351
346
344
343
345
343
341
342
343
342
339
337
337
338
337
335
332
333
336
337
336
332
331
333
336
335
333
333
335
337
336
333
333
336
337
335
333
334
337
339
337
335
334
336
338
337
336
336
337
339
338
336
335
337
339
338
336
336
340
341
339
337
337
338
339
339
338
338
339
340
339
338
336
339
341
340
337
337
339
342
340
337
337
340
341
339
336
337
339
341
340
338
338
339
341
340
338
337
340
341
339
337
337
340
342
340
338
338
340
341
340
337
337
340
341
339
337
338
340
342
341
339
339
341
342
341
339
340
342
343
341
338
339
341
342
340
338
338
339
341
341
337
337
340
344
346
344
343
345
347
346
343
343
344
347
345
344
345
350
349
345
341
342
345
347
346
341
338
340
342
342
339
339
341
343
342
338
337
339
341
342
339
339
343
347
352
359
370
381
392
399
400
394
382
364
342
322
309
306
309
311
316
320
327
334
334
334
335
338
339
337
335
337
338
341
340
340
341
344
347
344
342
342
344
346
343
340
340
342
345
345
341
342
346
351
349
345
345
347
349
347
346
345
348
353
353
351
349
351
352
351
348
346
345
346
346
343
343
346
344
341
338
338
340
339
335
333
333
336
337
336
335
335
337
338
337
335
335
337
338
337
334
335
338
339
337
335
335
337
340
337
335
335
337
338
337
336
336
337
339
339
335
335
338
340
339
337
337
339
340
339
336
337
338
339
339
335
335
338
341
339
336
336
339
341
340
337
336
338
341
339
337
337
340
341
339
337
337
340
341
339
337
337
339
341
340
337
336
339
341
340
337
337
340
341
339
337
337
339
342
339
338
337
340
342
340
338
338
340
342
342
339
338
341
343
342
339
339
342
342
340
338
339
342
345
342
339
339
341
342
341
339
340
341
343
346
345
345
346
348
347
345
343
345
346
345
343
343
349
350
345
341
341
343
345
344
340
337
339
340
340
339
338
339
340
339
337
337
339
341
340
338
337
342
346
348
354
365
377
388
395
400
397
386
370
348
327
312
307
307
308
312
318
326
333
335
334
335
338
339
338
336
337
339
340
337
338
341
343
344
343
340
340
342
343
342
340
340
343
344
344
340
340
344
348
348
346
345
347
348
347
344
343
345
350
352
350
347
349
351
349
346
344
344
345
343
341
340
344
344
340
336
337
339
340
336
332
332
334
336
336
333
332
334
335
335
333
334
336
337
335
333
334
336
338
337
334
333
335
336
336
335
335
337
339
337
334
334
338
339
339
336
336
338
341
338
336
336
339
340
339
336
337
339
340
339
337
337
339
340
340
337
338
340
342
341
337
337
339
341
340
337
337
339
341
340
338
338
340
341
340
338
338
342
343
342
339
339
340
341
340
338
338
339
341
341
339
338
340
342
340
339
340
341
342
340
338
337
341
342
340
338
337
339
342
341
339
338
341
342
341
338
338
340
342
341
339
339
341
343
342
339
339
341
343
344
344
343
345
347
346
344
344
347
348
346
343
343
347
350
347
342
341
343
345
344
340
337
338
340
340
338
337
339
341
341
338
337
339
341
340
338
338
340
344
347
351
361
374
385
392
398
397
389
374
353
332
317
311
307
307
310
317
324
331
334
333
336
339
340
339
336
335
339
340
339
338
340
344
345
344
341
340
342
344
343
341
341
343
344
343
341
341
343
347
348
346
345
346
347
346
344
344
346
350
351
349
349
351
352
351
347
345
345
346
346
343
343
344
345
341
337
338
340
341
337
333
332
335
337
337
334
333
335
337
337
335
335
337
338
337
335
334
337
338
337
336
336
338
339
337
334
334
336
339
338
335
335
336
337
336
333
333
337
339
337
336
335
338
340
338
335
335
337
338
337
334
335
336
338
340
336
336
339
341
338
336
337
339
340
339
337
337
339
340
339
337
337
339
341
339
337
337
340
341
340
338
337
339
342
341
338
337
339
340
338
337
337
340
342
341
338
338
340
341
340
339
338
339
341
340
338
337
340
342
341
338
339
340
342
341
338
338
341
342
341
340
340
342
343
341
339
338
341
342
343
343
344
345
347
346
343
343
345
348
346
343
342
347
350
348
343
344
345
346
345
342
339
339
340
340
337
338
340
343
341
338
338
340
341
341
339
339
341
344
346
349
358
369
381
389
394
398
394
380
361
338
321
312
308
307
308
315
323
330
333
333
335
338
340
338
335
336
339
340
338
335
338
342
344
342
338
338
341
343
342
339
340
341
344
343
340
340
342
346
347
345
345
346
347
346
344
343
346
349
351
350
349
351
352
350
348
348
347
347
344
341
341
344
345
341
336
335
338
340
336
332
331
334
336
336
333
332
336
337
335
332
332
335
337
336
333
333
336
338
337
335
335
337
338
338
336
336
337
339
337
336
336
337
339
338
335
336
338
340
338
336
336
338
340
339
336
336
337
340
338
335
336
338
339
339
336
336
339
341
339
337
336
338
341
339
338
337
339
341
340
337
336
339
341
339
337
337
339
341
341
337
336
339
342
342
337
337
339
341
340
338
338
340
342
341
338
339
340
342
341
339
338
339
340
341
339
338
341
342
341
338
338
341
344
342
339
338
341
342
341
339
339
341
343
341
338
338
341
342
342
342
344
346
346
345
343
342
345
346
345
342
342
345
349
348
343
342
343
345
344
342
340
340
341
339
337
337
339
341
340
338
338
341
343
341
337
337
339
343
343
345
353
365
378
385
391
396
395
385
366
344
325
313
308
306
307
313
321
328
331
331
334
338
340
339
336
336
338
339
337
335
336
340
343
343
341
340
342
344
342
340
339
342
344
342
340
340
343
346
346
345
345
347
348
346
344
343
345
347
350
349
348
350
351
349
346
346
346
345
342
340
339
342
345
342
336
334
336
339
338
333
331
334
337
336
333
333
336
337
336
334
334
336
338
336
334
334
337
338
336
334
335
336
338
337
336
336
338
339
338
335
334
337
339
338
335
334
337
340
338
336
335
337
340
338
336
337
339
342
340
338
337
339
341
339
336
336
339
341
339
336
336
338
340
340
337
337
338
340
338
336
335
338
340
339
336
336
339
341
339
337
337
339
341
340
337
337
340
342
339
337
337
340
342
341
338
338
340
342
341
340
339
340
342
341
338
337
341
343
342
339
338
341
342
341
339
338
341
342
340
337
337
340
342
341
339
339
341
342
341
341
343
346
348
345
344
344
345
346
343
342
343
345
349
348
344
342
343
346
345
343
342
341
342
340
338
337
340
342
340
337
337
341
342
340
338
337
339
341
342
344
351
363
375
384
390
396
399
391
373
351
331
318
311
305
304
309
319
326
329
330
332
337
339
338
336
336
338
339
337
335
335
341
344
343
339
339
341
343
342
339
339
342
345
343
340
340
342
345
346
344
343
346
347
346
343
343
346
347
348
349
349
351
352
350
347
347
349
347
344
341
342
344
346
343
339
337
338
340
338
334
332
334
336
335
332
332
334
337
336
333
334
337
338
336
333
334
336
337
336
334
334
337
338
336
334
334
337
339
338
335
335
338
340
337
335
335
337
338
338
336
335
339
340
337
334
334
337
340
338
336
336
339
341
339
336
336
340
342
340
337
337
341
342
339
335
336
339
342
341
338
336
338
340
338
337
337
339
341
340
337
337
340
341
340
337
337
340
342
340
337
337
342
343
341
338
339
342
344
342
341
341
342
343
341
338
338
341
342
341
338
338
340
342
340
338
339
342
343
342
339
339
341
341
340
338
338
340
342
341
340
342
346
348
346
342
343
346
348
346
344
343
345
348
349
345
343
344
345
344
342
341
340
340
340
337
338
340
343
339
337
337
339
340
339
337
337
340
341
341
342
348
359
371
379
386
394
400
397
382
359
337
322
313
306
303
308
318
325
329
330
332
337
340
339
336
335
338
340
338
336
336
340
344
343
342
340
341
344
341
340
340
342
343
341
338
339
342
345
345
344
345
346
347
345
343
344
346
346
346
346
348
350
352
349
346
346
350
349
345
341
341
344
346
345
340
338
338
340
339
335
333
334
337
336
333
332
335
338
336
333
333
337
339
337
334
335
336
337
336
334
334
337
338
337
336
336
337
339
337
336
336
338
340
338
336
335
339
340
338
335
335
338
340
339
337
337
338
340
340
337
337
340
341
339
337
337
338
340
339
336
336
339
340
338
337
338
340
340
340
337
338
340
341
339
337
337
339
340
339
337
338
339
342
340
337
338
341
342
341
338
338
341
342
341
339
338
340
342
340
338
338
341
343
342
340
340
341
343
341
339
339
342
344
342
339
339
342
343
342
339
339
341
343
342
339
339
343
343
342
341
343
347
348
346
344
344
347
348
346
344
343
345
348
350
348
345
345
346
345
342
342
343
342
340
338
339
341
342
340
338
338
341
343
341
338
338
341
343
343
344
347
358
369
378
384
391
400
399
386
365
345
329
317
308
303
305
315
323
327
330
332
337
339
338
335
335
337
339
338
336
336
339
344
344
342
341
343
345
343
340
340
343
343
341
339
339
342
343
343
344
344
346
347
346
344
344
346
348
347
348
350
351
351
349
347
348
350
350
345
341
342
344
345
344
340
338
339
340
340
337
334
335
337
335
333
333
337
338
335
333
334
336
338
336
333
334
337
338
337
335
335
335
337
336
335
335
338
338
337
335
334
336
338
337
334
335
337
340
338
336
336
338
339
337
335
336
338
340
339
336
336
338
339
338
336
336
338
339
338
336
336
338
340
339
336
337
339
340
338
337
337
338
340
339
337
338
340
342
340
337
336
339
341
340
338
337
340
342
340
338
338
340
341
340
337
338
340
342
340
338
338
340
342
340
339
339
340
342
340
338
338
341
343
341
338
338
341
342
340
337
338
341
343
340
339
339
342
343
342
339
342
346
348
346
342
342
344
346
344
343
343
345
346
348
346
344
344
345
343
341
342
344
342
338
336
338
341
342
339
337
337
340
341
340
338
338
340
342
340
340
344
352
363
371
379
387
397
399
389
370
350
333
320
309
303
304
312
320
325
327
331
334
338
338
337
337
337
338
336
335
335
339
343
343
341
340
342
344
342
340
340
342
343
342
340
340
342
343
343
344
345
347
348
347
345
345
346
347
345
345
347
350
351
349
346
347
350
350
345
340
341
343
345
344
341
339
340
341
340
336
334
335
337
336
333
333
335
338
336
333
333
336
337
336
333
334
335
338
337
335
335
337
339
337
334
335
336
338
338
336
336
337
339
337
335
335
338
339
337
334
335
339
342
340
336
336
339
341
340
338
337
339
340
339
336
336
338
341
339
337
337
339
340
339
336
337
339
340
338
336
337
339
340
339
336
337
339
340
339
336
336
340
341
339
337
337
340
341
339
337
338
339
339
338
337
338
340
342
341
339
337
340
341
341
338
338
341
343
341
339
339
341
343
341
339
339
341
343
341
339
340
342
343
341
339
339
342
344
342
338
340
346
349
347
344
344
346
346
344
342
343
345
346
346
346
344
345
345
343
341
342
344
343
339
336
336
340
342
340
338
338
339
340
339
337
338
341
342
340
339
343
351
362
370
378
387
396
400
394
378
358
340
325
311
304
303
310
319
323
324
329
334
339
339
336
336
338
339
338
336
336
339
341
342
340
340
342
344
342
340
339
342
343
343
341
341
343
344
344
343
345
346
347
345
344
345
346
347
346
344
347
351
352
350
348
348
350
350
347
342
342
343
346
344
341
339
339
341
341
339
336
337
337
336
334
334
336
338
336
334
333
336
337
336
334
333
335
336
335
333
334
337
338
337
336
335
337
339
337
335
336
338
339
337
335
336
337
339
337
336
336
338
340
338
336
336
339
341
338
336
336
338
340
338
336
336
339
341
339
337
337
340
341
340
337
338
340
341
340
337
337
340
341
338
336
337
339
341
339
336
336
339
341
340
338
338
340
342
339
337
336
340
341
340
338
338
341
342
340
338
338
340
342
340
338
339
341
343
341
339
338
341
343
340
337
338
340
341
339
337
338
340
341
340
338
340
342
342
339
337
338
343
347
345
341
341
344
346
344
341
342
344
345
344
347
345
344
345
343
341
342
345
344
340
337
338
340
342
340
337
337
340
342
341
338
339
341
343
341
339
342
348
358
367
375
384
395
402
399
384
366
348
331
314
304
302
309
317
321
324
329
333
336
336
335
335
338
339
337
335
335
338
340
341
339
340
342
344
342
339
340
343
344
343
341
341
342
344
342
342
346
348
349
346
344
345
348
349
347
344
346
351
353
351
347
347
349
352
347
341
340
343
345
344
342
340
340
339
337
336
336
336
336
335
332
333
335
337
335
332
332
336
337
335
334
335
337
338
336
333
334
336
338
335
334
335
337
339
338
336
335
337
339
337
335
336
339
339
337
335
336
337
339
338
336
336
337
338
337
335
334
337
339
337
335
335
338
339
338
336
336
338
339
337
335
336
338
340
338
337
335
338
340
339
336
336
339
340
340
337
337
339
340
339
337
338
340
341
339
337
337
339
341
339
338
338
340
342
341
340
339
342
343
341
337
338
341
343
340
338
338
342
342
340
338
340
342
343
340
339
339
341
342
341
338
339
341
343
341
338
339
344
349
347
343
343
346
347
345
343
343
345
347
346
346
346
347
346
344
342
343
345
345
340
336
337
339
341
340
337
337
339
341
340
337
338
340
342
339
338
341
347
354
362
369
379
391
399
400
387
371
354
336
320
307
304
308
314
319
323
328
334
337
338
337
337
340
340
339
335
336
338
340
341
340
342
343
344
342
339
340
343
345
343
340
340
343
344
341
341
343
347
349
348
344
344
347
349
347
345
347
351
354
351
349
350
352
351
348
342
343
344
346
344
342
341
341
342
339
337
337
337
337
334
333
332
335
337
335
333
333
336
337
336
334
334
336
338
337
335
334
336
338
336
334
335
337
338
337
335
335
338
339
337
335
335
337
337
336
335
335
337
339
338
337
335
338
340
339
336
336
338
339
337
336
336
339
340
337
335
336
339
340
338
337
338
340
341
339
338
338
340
341
340
338
339
341
342
341
338
339
340
342
340
338
340
342
344
340
338
341
342
343
341
340
339
342
343
342
340
339
342
344
341
340
340
342
343
341
338
339
342
343
341
339
340
342
343
342
339
339
343
344
343
340
340
341
342
340
338
338
343
347
346
344
343
346
347
345
342
342
344
346
344
346
347
348
346
346
342
342
345
346
342
338
338
341
343
341
338
339
341
344
341
338
339
341
343
341
339
341
347
353
362
369
379
390
398
400
392
379
363
344
325
311
306
308
313
320
322
327
334
338
338
337
337
339
340
338
336
337
339
340
341
340
342
344
345
343
340
340
344
345
343
341
342
344
345
342
341
344
348
350
348
344
345
347
349
347
344
346
351
353
351
348
348
351
352
350
345
344
345
345
344
342
342
342
342
340
337
338
338
336
334
332
333
336
337
336
334
334
337
337
336
333
334
337
338
336
334
335
337
338
337
334
334
337
338
337
334
334
336
338
336
334
334
337
337
336
334
336
337
339
337
336
336
339
340
341
337
337
340
341
339
336
337
339
341
338
336
336
339
340
338
336
338
340
341
338
337
337
339
341
339
337
337
340
341
339
338
338
340
342
341
339
339
342
344
341
338
338
340
341
339
337
337
341
342
341
336
338
340
342
340
338
338
341
341
340
337
338
341
342
340
337
338
340
341
339
338
338
341
342
341
338
340
344
343
341
338
339
343
346
346
343
344
346
347
345
343
345
347
347
344
343
346
349
348
346
343
344
347
347
343
338
337
340
342
340
337
337
340
341
339
337
339
341
342
340
339
338
343
349
356
362
373
385
394
398
394
383
367
347
327
311
306
305
309
313
317
323
330
333
334
335
335
337
338
336
333
335
338
340
339
339
340
343
344
342
340
340
342
342
340
339
341
343
344
341
340
342
348
350
348
345
345
347
348
346
344
345
350
353
351
347
348
351
353
350
346
343
344
345
344
343
343
343
342
340
337
338
339
338
335
332
333
335
336
335
333
334
337
339
337
334
335
337
338
337
335
335
338
341
338
335
335
338
340
339
336
336
337
339
338
335
335
338
339
337
336
336
340
341
337
335
335
339
339
338
335
335
338
339
338
336
337
340
341
339
337
338
340
341
338
335
337
340
341
339
337
337
340
341
339
337
338
340
340
339
336
338
341
341
339
335
337
340
341
338
336
337
340
341
339
337
337
340
341
340
338
339
340
341
339
339
339
341
342
339
337
338
341
342
340
337
338
341
342
340
337
338
341
342
340
338
340
342
343
341
338
339
342
346
346
344
344
345
346
344
343
344
345
346
344
343
346
350
348
344
340
341
344
346
342
337
337
339
341
340
338
338
340
340
337
336
337
339
341
339
337
338
343
347
352
360
371
382
393
399
399
391
376
356
335
317
308
305
306
310
315
323
330
334
334
334
336
339
338
337
335
336
337
340
339
339
342
343
345
342
339
340
342
343
341
339
339
341
342
341
338
339
345
348
347
344
344
346
347
345
342
343
348
352
350
348
348
350
350
349
346
344
344
344
343
342
343
345
342
338
335
336
338
337
333
331
333
336
338
335
332
333
335
337
335
333
334
336
337
336
334
335
337
338
336
334
336
338
339
336
334
337
338
339
338
335
335
338
339
337
335
337
339
339
337
335
338
340
341
338
336
337
339
340
338
336
337
339
341
339
337
338
340
341
338
336
339
341
341
339
335
337
339
340
339
336
337
340
342
339
337
338
340
341
339
337
338
341
342
339
337
339
341
342
339
337
338
340
341
339
337
338
341
342
340
339
340
341
342
339
337
339
342
342
341
339
340
342
343
341
340
340
342
344
342
339
340
343
343
340
338
338
341
344
344
343
344
346
347
345
343
343
344
346
344
343
345
348
347
343
341
343
346
348
344
338
337
339
342
340
338
338
341
341
339
337
339
341
341
339
337
339
343
346
349
356
368
380
390
396
397
393
380
362
341
322
309
306
306
309
314
321
328
333
333
334
336
339
340
338
336
336
338
340
336
338
340
343
343
340
339
340
343
344
342
340
340
342
342
340
338
339
344
349
348
344
344
345
347
345
341
342
346
350
349
346
347
349
349
347
345
344
345
346
344
342
342
345
343
338
336
336
339
337
332
330
332
335
336
334
332
333
336
337
335
333
333
335
337
335
333
334
337
338
336
334
336
337
338
336
334
335
339
339
337
335
336
339
339
337
335
336
339
339
338
336
336
338
339
337
335
336
339
340
337
335
335
338
340
337
335
335
338
340
337
335
336
338
339
338
336
338
342
341
339
338
339
341
342
340
338
338
340
341
339
336
338
340
341
338
337
338
340
341
340
338
339
342
342
340
337
338
341
342
340
338
339
341
342
340
338
339
341
342
340
338
339
341
343
340
338
338
341
341
340
339
339
342
343
342
339
339
341
343
344
343
344
347
348
345
343
343
346
348
345
343
344
349
349
347
344
344
346
346
344
340
339
339
341
338
337
337
339
340
338
337
338
340
342
339
337
338
341
345
348
353
364
376
386
392
396
396
386
369
346
326
313
309
307
307
311
318
327
332
333
333
336
338
339
337
335
335
337
339
337
337
341
343
345
341
338
340
342
343
341
339
341
343
344
341
338
340
344
347
346
343
343
346
347
344
342
342
346
350
350
348
348
351
351
348
345
344
345
344
341
340
342
344
343
338
335
336
339
338
333
332
334
336
335
333
331
332
336
336
334
332
333
335
335
333
332
333
335
336
334
333
334
335
337
334
332
334
336
337
335
333
333
336
336
334
332
333
336
337
334
333
335
337
338
335
333
334
337
338
336
333
334
337
337
336
334
336
338
339
336
334
339
340
340
337
335
336
340
341
338
335
337
339
341
338
336
337
339
340
339
338
339
341
340
338
336
338
342
341
339
337
338
341
341
338
336
336
339
341
339
337
338
340
341
339
336
337
339
340
338
337
339
341
342
339
336
338
341
342
340
339
339
341
341
339
337
338
341
342
342
342
345
346
346
345
343
344
346
346
346
342
343
348
349
345
341
342
345
346
343
339
338
339
339
338
337
338
340
342
340
338
339
340
341
340
338
339
341
344
346
351
361
374
384
391
395
397
391
377
353
333
318
310
307
307
310
318
325
331
333
333
337
339
340
338
336
337
340
342
340
338
341
344
345
343
340
341
344
344
342
340
341
343
344
342
340
341
345
348
347
344
344
347
348
347
344
345
348
351
351
349
349
351
352
349
347
347
347
346
343
341
342
345
344
340
337
337
339
339
335
332
332
335
336
334
332
334
335
337
335
332
334
337
338
335
333
333
336
337
335
334
334
336
336
334
332
334
337
338
335
332
334
337
339
336
335
336
338
338
336
334
335
338
339
336
335
336
339
338
335
333
335
338
339
337
335
337
340
340
337
336
336
339
339
338
336
337
341
341
339
337
338
341
341
338
336
337
340
341
339
336
337
338
339
338
336
338
339
339
337
336
337
341
342
340
338
339
341
341
339
337
339
341
342
340
338
339
342
342
340
339
341
343
342
340
338
340
343
343
340
338
339
342
343
341
340
340
342
342
342
343
345
347
347
345
343
345
347
348
346
343
345
348
351
346
342
342
344
346
344
341
339
339
340
339
337
339
341
342
340
339
339
341
342
341
339
339
340
342
343
347
356
369
381
387
393
397
394
381
360
338
323
312
308
304
306
314
323
329
332
331
334
338
339
338
337
335
338
339
337
334
338
343
344
342
339
340
343
344
341
339
341
343
344
341
339
339
342
346
346
345
345
346
348
345
343
344
347
349
349
347
349
351
352
350
347
347
347
345
342
340
342
344
344
340
335
335
339
340
334
330
330
333
334
333
331
333
335
335
332
332
333
337
338
336
333
333
335
336
335
334
335
337
338
337
334
336
337
338
336
333
335
337
338
336
335
337
338
338
336
334
336
338
339
337
335
336
338
338
336
334
337
340
340
337
334
336
339
339
337
335
336
339
341
338
335
336
338
339
336
335
336
338
339
338
335
336
338
339
338
336
337
339
340
338
336
338
341
341
339
336
338
341
340
339
336
337
339
341
339
336
336
340
341
339
337
338
341
342
340
338
339
341
342
340
337
338
340
340
339
338
339
340
342
340
339
338
341
342
340
341
345
348
348
345
343
344
345
345
343
342
343
347
350
348
342
341
343
345
344
342
340
341
340
338
337
338
340
341
339
337
338
341
340
338
337
338
340
342
343
347
355
367
378
385
391
398
398
387
367
345
327
316
309
305
305
313
322
327
330
330
333
338
339
337
335
336
338
339
337
335
338
343
345
342
340
341
343
344
342
339
340
342
343
341
338
339
341
344
345
344
344
346
347
345
342
344
346
347
348
348
348
350
351
348
346
347
348
346
343
340
341
343
344
341
336
336
339
341
337
332
332
335
336
335
333
334
338
338
336
332
333
336
337
336
333
333
335
336
335
333
334
336
338
336
334
335
338
339
336
334
335
337
337
335
334
336
338
339
336
334
334
337
337
336
334
335
338
342
337
335
335
337
339
337
336
337
338
339
337
335
336
338
339
337
335
337
340
340
338
336
336
339
340
338
336
337
339
339
338
336
338
340
340
338
336
337
340
342
339
337
337
340
341
340
338
338
341
342
340
339
340
343
343
340
338
340
342
343
340
337
338
341
342
340
338
340
341
342
340
338
338
341
344
340
338
338
341
342
340
341
345
348
348
346
342
343
346
347
345
342
343
345
348
348
344
344
345
345
344
342
341
341
341
339
337
338
339
340
338
336
338
341
342
339
336
337
340
341
342
344
351
363
374
381
388
397
401
392
374
352
332
319
310
305
304
310
319
326
329
331
333
337
338
336
334
335
336
338
337
335
337
342
344
343
340
341
343
344
342
340
340
342
343
342
339
340
343
345
346
345
347
347
348
347
344
344
346
346
346
347
349
352
352
349
346
347
349
346
343
340
341
344
346
343
339
337
339
340
337
332
331
334
335
333
331
332
335
336
334
332
332
334
335
333
331
332
335
336
334
332
333
336
337
336
333
334
337
337
335
332
333
336
337
335
333
335
337
338
336
334
335
337
339
337
335
335
337
339
337
335
337
340
341
338
336
336
338
338
336
335
336
339
339
337
335
336
338
339
337
336
336
340
341
339
336
336
338
340
338
336
337
339
340
339
337
338
340
342
340
336
337
339
341
340
337
337
340
341
338
337
338
340
341
339
336
338
340
341
338
336
338
340
342
340
338
340
341
343
340
339
339
342
342
340
338
339
341
343
340
339
344
346
347
344
342
343
345
346
345
342
343
345
348
348
344
342
344
345
343
342
342
341
340
337
335
338
340
341
339
336
337
339
341
339
337
337
339
340
339
340
347
359
370
377
385
393
400
395
379
357
339
324
312
305
302
307
316
323
326
330
333
337
339
337
335
336
339
339
338
335
336
341
344
343
340
340
342
343
342
342
342
343
344
343
341
341
342
344
344
344
344
346
347
346
343
344
346
347
346
347
350
351
352
349
347
348
349
348
345
342
342
345
346
344
339
337
339
340
338
335
334
335
336
335
334
335
338
337
334
332
334
337
338
335
333
333
336
337
336
334
335
337
338
336
333
334
337
339
338
335
336
337
338
337
335
335
337
338
336
334
335
338
339
337
334
335
338
340
337
334
335
338
339
337
335
335
338
338
336
335
336
338
339
337
335
336
338
340
338
336
337
339
340
338
335
336
339
340
339
336
337
340
341
339
336
338
340
341
339
336
336
339
340
338
336
336
340
342
339
337
337
340
341
339
337
338
340
341
338
337
338
340
342
341
338
338
342
344
341
339
339
342
342
340
338
338
341
343
341
340
342
347
348
345
342
344
346
347
345
342
342
344
346
348
345
343
344
346
344
342
342
343
341
339
337
338
341
342
340
336
337
341
342
340
336
337
340
341
341
342
346
358
368
376
383
393
402
399
385
365
345
329
317
308
303
307
315
321
325
328
331
337
339
338
335
336
338
340
338
336
336
339
344
343
340
340
343
344
342
340
340
342
343
342
340
341
344
346
345
345
346
348
348
345
343
344
347
348
347
346
348
351
352
348
346
347
350
349
346
342
343
346
347
345
342
339
339
339
338
335
333
335
337
334
332
334
336
338
335
333
334
337
339
336
333
334
336
338
336
334
334
337
338
336
333
334
336
338
336
333
334
337
338
337
338
336
337
339
337
336
336
338
338
337
335
335
338
339
337
334
334
337
340
338
336
336
338
339
337
336
337
339
340
338
336
336
340
342
339
336
336
339
340
339
336
336
339
341
337
335
336
339
340
339
338
338
340
340
339
337
338
340
342
340
338
337
339
340
339
337
337
341
342
340
338
338
341
343
341
338
339
341
343
341
338
338
340
341
340
337
338
340
342
340
338
338
340
341
339
337
342
346
349
346
343
343
346
347
345
343
343
345
345
346
346
344
345
345
344
341
342
344
343
339
337
338
341
343
341
339
338
340
342
340
337
338
340
341
339
339
344
354
364
372
378
388
398
402
389
371
352
336
321
311
303
304
312
320
324
325
330
334
339
337
335
334
337
338
336
333
334
337
342
342
339
341
343
344
341
339
340
342
342
340
337
339
341
344
342
342
343
346
347
345
343
343
345
347
345
345
348
352
352
349
345
347
349
350
344
339
340
343
344
342
339
336
338
339
337
335
332
333
334
333
332
333
336
337
335
333
334
336
337
335
333
333
335
336
335
334
333
335
337
335
333
333
336
338
336
334
335
336
338
337
334
334
338
340
338
334
335
338
339
337
335
335
338
340
337
335
335
338
339
337
335
336
340
341
340
338
338
339
340
339
336
337
340
341
339
336
337
339
340
338
336
335
338
340
338
336
338
340
341
339
337
338
341
342
340
337
337
340
341
339
337
337
339
341
339
337
337
339
341
339
337
339
340
341
340
338
339
341
342
341
338
338
340
341
339
337
338
340
341
340
338
339
341
342
340
338
341
346
348
345
342
343
346
347
346
343
342
345
345
345
345
344
344
344
343
341
342
344
342
338
336
339
342
342
339
337
338
341
343
341
337
337
339
340
339
339
341
349
359
369
376
384
395
400
394
377
357
339
324
310
303
303
310
318
323
326
329
333
337
338
336
335
338
339
338
335
335
339
343
343
341
340
342
343
341
339
339
342
343
341
338
339
341
342
342
341
344
348
348
345
343
343
345
346
345
344
346
350
350
348
345
346
348
350
346
341
340
343
346
344
342
339
338
339
337
335
334
334
335
333
330
332
335
337
335
334
334
336
338
336
334
334
337
337
336
333
334
336
338
336
334
334
338
338
337
334
335
337
338
337
334
335
336
338
336
334
336
337
339
337
335
335
338
340
338
336
335
338
339
338
335
336
338
339
338
336
337
339
340
339
337
338
341
341
339
335
336
339
342
339
336
336
339
340
339
337
338
340
342
341
340
339
340
341
339
337
338
340
341
339
338
338
340
341
339
337
337
340
341
340
338
339
342
343
341
339
339
341
342
340
337
338
340
341
340
337
338
341
342
339
338
338
341
342
340
337
339
345
347
346
343
344
345
346
344
342
342
344
346
346
346
346
345
345
344
342
343
346
344
339
336
337
341
342
341
339
339
342
343
341
339
339
340
341
340
339
341
348
357
365
372
381
393
401
398
383
365
347
331
316
307
305
309
316
321
325
329
334
338
338
337
337
338
339
337
335
336
338
342
342
341
341
344
345
343
340
341
343
344
342
340
340
342
344
343
341
344
348
349
346
343
344
347
348
347
345
347
351
353
351
347
347
349
350
347
342
340
343
345
344
341
340
340
341
338
336
335
336
337
334
332
332
334
336
335
333
333
335
336
336
334
334
336
338
336
334
334
337
339
337
335
334
336
337
336
334
335
337
338
336
335
335
337
337
336
334
335
338
340
338
335
335
337
339
337
334
335
338
339
337
334
335
338
339
338
335
336
338
341
339
337
336
339
341
339
336
337
339
340
338
336
337
341
342
339
336
338
341
341
339
337
337
340
340
339
337
337
340
341
338
336
338
339
340
338
336
337
339
340
339
337
338
340
341
340
338
338
341
342
339
337
337
340
341
340
338
338
341
342
340
337
338
340
342
341
338
339
344
347
346
344
343
345
347
344
342
343
345
348
346
345
345
345
344
342
340
341
344
344
339
336
336
340
341
340
339
339
341
341
339
336
337
340
341
339
337
339
345
353
360
368
378
389
399
398
387
370
353
335
318
306
302
305
312
317
320
325
332
335
336
335
334
336
338
337
335
335
336
339
341
341
341
342
343
342
339
339
342
344
342
340
340
342
343
342
342
344
349
348
346
343
344
346
347
345
343
346
350
352
350
347
347
350
350
348
342
340
342
345
344
341
340
340
339
337
335
336
336
336
334
332
334
336
337
335
333
333
334
337
335
332
333
336
337
336
333
333
336
337
335
332
332
336
337
336
335
335
336
337
337
335
334
336
338
336
333
333
336
337
336
334
334
337
338
337
335
335
337
339
338
337
337
338
340
338
336
336
338
340
338
336
337
339
340
338
336
336
338
340
338
336
336
338
340
338
336
337
341
342
340
337
337
340
343
340
337
337
339
341
339
337
338
340
340
339
337
337
340
341
340
338
339
340
341
340
338
339
341
342
340
338
338
341
342
340
338
338
341
341
339
336
337
341
344
341
338
338
342
347
346
344
343
345
346
343
341
342
345
346
343
343
346
346
345
342
341
341
344
345
340
336
336
340
342
341
338
338
340
341
340
337
338
339
341
339
337
339
345
351
358
367
376
387
398
400
393
379
364
344
326
312
306
307
312
317
320
325
333
336
338
336
336
338
339
338
336
336
339
340
341
340
342
345
345
343
340
341
343
343
342
339
339
341
343
341
339
341
346
348
346
344
344
347
348
346
343
346
351
353
350
348
347
349
351
349
344
342
343
345
344
342
342
342
341
338
336
336
337
338
334
333
334
337
338
336
333
334
336
338
336
334
334
335
336
335
333
334
335
337
336
334
333
336
338
336
334
335
337
338
337
335
335
338
339
336
334
335
337
339
338
335
336
339
340
337
334
335
338
340
339
337
337
338
340
338
336
336
338
341
338
336
336
338
340
339
336
335
338
339
337
335
336
338
339
338
336
336
339
340
339
337
337
339
341
339
337
336
338
340
340
337
336
338
339
338
337
337
339
341
339
337
338
340
341
340
337
338
341
342
341
337
337
340
341
340
337
337
340
341
340
338
338
341
343
341
339
338
340
346
346
343
342
345
347
345
342
343
345
347
345
342
345
347
345
343
341
341
344
345
340
336
335
339
