0
382
390
395
395
387
372
352
331
316
308
306
305
309
316
325
332
334
333
335
338
340
339
336
335
336
338
337
336
338
342
343
342
339
339
340
342
341
338
339
342
343
342
338
339
342
347
347
345
344
345
347
346
344
343
345
348
349
348
348
349
351
349
346
345
344
344
342
341
341
342
343
339
335
335
338
338
334
331
331
334
335
333
331
332
334
335
334
332
332
334
335
335
333
333
335
336
334
332
332
335
337
335
333
333
334
336
335
332
333
336
338
336
334
334
335
337
336
334
335
337
337
336
335
335
336
337
337
335
335
337
339
338
336
336
338
339
337
335
336
339
339
336
334
335
338
339
337
336
336
338
339
337
335
336
339
340
337
335
337
339
340
338
336
337
339
340
339
337
337
339
340
339
337
338
340
342
340
337
338
340
341
338
335
337
340
341
340
338
338
340
342
340
338
338
340
341
340
339
340
340
342
341
338
339
341
343
344
343
344
345
346
344
342
342
344
346
344
342
342
346
350
346
341
341
344
345
343
341
339
338
339
338
336
336
339
340
338
338
338
340
341
339
338
338
340
343
344
347
357
370
381
389
394
398
394
380
359
336
320
311
307
305
308
315
322
328
332
331
335
338
339
337
334
335
337
340
338
337
340
343
344
342
341
341
342
343
341
339
340
343
344
344
341
341
342
347
347
346
346
347
348
346
343
344
345
348
349
350
348
350
351
349
346
345
344
344
344
341
341
343
343
340
336
336
338
339
336
332
332
335
336
334
332
333
335
337
336
333
333
335
336
335
332
331
334
335
334
333
333
335
337
335
334
334
336
339
339
336
335
337
339
337
335
336
338
339
337
335
336
338
339
338
336
335
338
338
337
335
336
339
340
338
335
337
338
338
337
335
337
338
339
338
335
335
338
340
339
336
336
338
339
338
336
337
339
340
339
337
337
339
341
339
336
336
339
339
339
337
337
339
340
338
336
336
338
339
338
337
337
339
340
339
337
336
338
340
339
337
337
339
341
339
337
337
339
341
339
337
338
341
341
340
338
338
342
342
340
341
343
345
346
344
341
341
344
346
344
342
342
344
347
345
341
341
342
344
343
341
339
339
339
338
336
336
338
340
339
336
336
338
339
338
338
338
340
341
343
346
355
367
378
385
391
396
397
385
365
343
325
313
307
304
305
311
320
326
330
331
335
338
339
337
335
336
338
339
337
334
337
341
344
342
340
340
341
341
340
339
339
341
343
341
338
339
341
345
346
345
346
345
346
344
343
343
345
347
348
348
348
350
351
348
346
346
346
345
342
340
341
344
344
340
335
335
337
340
337
332
332
334
336
335
333
333
335
335
335
333
334
335
336
335
333
334
337
337
336
333
333
334
336
335
333
334
337
337
335
333
333
335
336
336
334
335
337
338
337
336
336
338
340
339
337
336
338
339
337
336
336
338
339
337
335
337
339
340
337
336
336
339
339
337
335
337
339
340
338
336
337
339
340
339
337
337
339
339
338
337
338
339
340
339
337
338
340
340
339
337
339
340
341
339
337
339
341
341
338
336
338
342
342
340
337
337
340
341
339
336
337
340
341
339
336
338
340
340
339
338
339
341
342
339
337
338
341
342
340
341
343
347
347
345
343
343
345
346
345
343
343
346
347
347
343
342
345
346
344
342
341
340
339
338
337
337
340
340
338
336
337
339
340
338
337
338
340
341
342
343
351
363
373
381
388
396
399
390
372
350
331
318
309
304
303
310
319
325
328
330
333
338
339
337
335
335
338
338
336
335
336
341
344
342
340
340
343
343
341
340
341
342
343
342
340
340
342
343
345
345
346
346
346
345
343
344
346
347
346
346
347
350
350
348
347
348
348
346
342
340
340
343
345
342
337
337
339
340
337
332
332
334
336
334
332
333
335
336
334
332
333
335
335
335
333
334
336
337
335
331
331
335
337
336
334
334
336
337
337
334
335
337
338
335
333
335
337
338
336
333
335
337
338
336
334
335
338
339
338
335
335
337
338
337
335
335
338
339
337
335
336
338
339
337
336
336
339
340
339
337
337
339
339
338
336
337
340
341
339
337
338
340
340
339
337
338
340
341
340
337
336
338
340
339
337
338
340
341
339
337
339
341
341
339
338
339
340
341
339
337
338
341
342
340
340
340
341
342
342
339
339
341
341
339
337
338
341
341
339
339
341
345
347
345
343
343
345
345
344
342
342
344
346
347
343
342
344
346
343
341
341
340
339
337
336
337
338
339
337
336
337
339
340
338
337
338
341
341
341
342
348
360
371
379
386
395
400
394
377
355
336
321
311
305
303
307
317
324
327
329
331
336
339
337
335
336
338
339
337
335
336
341
344
342
340
340
341
342
341
339
340
342
343
341
339
339
341
341
343
343
344
346
347
345
342
343
346
346
345
345
348
350
350
348
346
346
348
345
342
340
341
343
344
342
339
337
339
340
337
333
332
333
335
334
332
333
335
336
334
333
334
336
336
335
334
335
337
336
333
331
332
336
338
335
334
335
336
336
334
332
334
336
336
335
334
334
337
338
336
334
335
337
337
336
335
336
337
338
337
335
335
337
339
337
336
337
338
338
337
336
336
338
339
337
336
336
338
339
337
335
336
339
339
338
336
338
339
339
338
335
338
340
340
339
337
337
339
340
339
337
338
340
340
339
337
337
339
340
339
337
337
339
340
339
337
337
339
340
339
337
338
340
341
340
339
339
340
339
338
337
339
340
340
338
337
337
340
342
339
339
342
345
346
343
341
343
345
345
344
342
342
346
347
347
344
342
344
345
344
342
342
342
340
338
336
338
341
342
340
338
338
339
341
339
337
338
340
340
339
340
345
356
367
375
382
391
399
397
382
362
343
327
314
306
302
306
314
321
324
327
331
336
339
336
333
334
337
337
336
335
335
340
343
342
340
341
342
342
340
339
340
342
342
340
339
341
343
342
342
344
346
347
346
344
342
344
348
346
344
346
348
351
351
348
346
346
349
348
343
340
340
344
345
343
339
337
339
340
338
335
332
333
334
333
333
334
336
336
334
332
333
336
337
335
334
335
337
337
335
334
336
337
338
336
333
335
337
338
336
334
335
338
339
337
334
335
337
337
335
334
335
337
338
336
334
336
338
338
337
336
336
338
338
336
335
336
337
338
337
335
336
338
339
337
335
336
338
338
337
337
338
339
339
337
335
336
339
339
338
336
337
339
340
339
337
338
340
340
338
336
338
340
341
338
337
338
340
339
337
335
337
341
341
339
337
338
340
340
340
338
339
341
342
339
337
338
340
340
339
338
338
340
341
340
339
339
341
342
342
340
343
347
348
345
343
344
345
346
344
342
343
345
345
346
346
345
344
344
342
341
343
343
340
337
334
337
340
340
338
336
337
341
341
338
336
337
339
340
339
339
343
353
363
371
379
389
398
400
386
368
349
334
318
307
302
305
313
321
324
327
332
336
338
338
336
336
338
338
337
335
336
340
343
342
340
341
344
344
341
339
340
341
342
341
339
340
342
343
341
343
346
348
348
346
344
345
347
347
343
344
348
351
351
348
346
347
349
349
344
340
341
344
343
342
340
339
339
339
337
335
333
334
334
332
331
333
335
334
333
332
333
335
335
334
334
336
337
337
334
333
334
337
337
335
333
335
337
337
334
333
334
338
338
336
334
336
338
338
335
334
335
338
338
335
334
335
337
338
337
335
337
338
339
336
336
337
339
339
337
336
336
338
339
337
335
336
338
338
337
336
337
339
340
338
338
339
340
340
338
337
337
339
340
338
337
338
341
340
338
336
338
341
340
338
337
338
341
341
339
337
338
340
340
338
338
338
340
340
339
338
339
342
342
339
338
339
341
341
339
338
339
340
341
339
338
339
341
341
338
337
340
346
347
345
343
343
345
344
342
341
342
345
345
346
346
344
344
344
342
341
342
343
340
336
335
337
340
340
338
336
337
339
339
338
337
338
340
340
338
339
343
351
362
370
378
387
397
400
391
374
356
338
322
309
303
304
310
316
320
324
330
334
336
336
335
336
337
337
336
335
336
338
341
341
341
341
343
342
340
340
341
343
342
340
339
340
343
343
341
342
345
348
348
344
343
344
347
347
344
345
348
351
352
348
346
348
350
350
345
342
342
345
344
342
342
341
341
338
336
335
334
335
334
333
332
334
336
335
334
334
336
337
336
334
333
334
337
337
335
334
335
338
336
335
334
336
337
338
336
333
335
337
337
335
334
336
338
338
336
335
338
338
338
335
333
335
337
338
336
334
335
338
338
336
335
336
338
338
335
334
337
340
339
335
335
337
339
340
336
335
336
340
339
338
337
338
340
340
337
336
338
340
341
340
337
339
341
340
338
337
339
342
341
338
337
338
339
340
338
338
340
340
340
337
337
339
341
341
339
337
338
340
340
339
338
339
341
340
337
337
338
341
341
339
338
339
340
340
338
337
340
345
346
344
342
343
345
346
344
344
344
345
345
344
345
346
346
343
340
340
342
344
341
336
336
336
339
339
336
335
337
338
339
337
335
336
339
340
338
338
342
349
357
364
373
384
395
400
394
380
362
344
325
311
304
303
309
315
319
323
330
334
335
336
334
336
337
337
335
335
336
337
339
341
341
342
343
342
340
339
341
342
341
339
339
340
343
343
341
342
345
348
347
345
344
347
347
346
345
345
347
351
351
349
348
348
349
350
345
342
343
345
344
342
341
341
340
339
337
337
336
335
333
331
332
334
336
335
333
333
334
336
336
334
332
334
337
337
334
333
334
337
336
334
333
335
337
336
333
334
336
338
337
334
333
335
337
337
336
336
337
339
338
335
334
336
338
338
336
335
337
338
338
336
336
339
341
339
336
335
337
339
339
337
336
338
340
339
336
336
338
340
339
337
336
336
339
339
337
337
339
340
340
337
337
339
341
340
337
338
339
341
340
337
338
339
339
340
337
337
340
342
341
338
338
339
341
340
337
337
339
341
339
338
338
339
339
339
337
338
340
341
340
338
337
340
341
341
337
338
340
345
346
344
343
344
346
345
343
343
345
347
346
344
347
349
348
345
342
342
343
345
343
339
337
338
340
339
337
338
338
340
340
338
337
339
340
339
337
338
342
347
354
362
372
383
394
399
397
386
371
352
332
315
306
303
307
312
316
321
327
333
335
336
336
337
337
337
335
336
337
339
339
339
340
342
344
341
339
339
342
343
342
340
339
341
343
343
340
340
344
347
347
344
344
345
347
346
343
343
347
352
351
349
348
350
351
350
345
342
341
343
343
341
341
342
340
338
336
335
338
336
335
333
332
334
334
333
332
332
333
335
334
333
333
335
336
335
333
333
335
338
337
334
334
336
338
337
335
334
337
339
338
335
334
337
339
337
335
335
338
339
338
335
335
337
339
337
335
335
337
340
338
335
335
337
339
339
337
336
340
340
338
337
337
339
340
338
337
336
338
339
339
337
337
339
340
339
337
338
339
341
338
335
336
340
341
339
338
337
340
342
340
337
337
339
341
339
338
338
339
341
339
337
337
338
340
339
337
337
340
341
340
338
338
340
341
341
337
337
340
341
339
337
337
339
341
341
338
338
339
343
344
343
344
345
346
344
341
342
344
346
345
343
345
349
348
344
340
341
345
345
343
338
336
337
339
339
338
338
340
341
339
337
338
340
341
339
337
338
341
346
351
357
367
380
389
396
398
391
376
358
336
318
307
304
305
309
313
320
330
333
334
333
335
337
338
336
335
336
337
338
337
338
341
343
343
341
339
340
342
342
341
339
339
342
342
341
338
339
344
348
347
344
344
346
347
346
344
343
347
351
351
348
346
349
350
350
346
343
343
344
343
341
341
343
342
338
336
337
339
338
334
332
332
336
336
336
333
333
335
336
335
333
334
336
337
336
334
333
335
337
335
333
334
336
337
337
334
334
335
337
336
335
335
337
338
336
334
336
338
338
337
336
336
337
337
337
335
336
337
338
338
336
336
338
339
338
335
335
337
339
337
335
335
338
339
337
335
336
338
339
338
336
337
339
340
338
336
336
339
340
338
336
337
340
341
339
337
338
341
341
339
338
338
340
341
339
336
336
339
340
339
337
337
339
340
339
337
338
340
341
340
338
339
340
342
339
338
339
341
342
340
338
339
342
342
339
337
340
341
342
343
343
343
345
347
344
342
343
345
346
344
342
345
350
350
345
341
342
344
346
344
339
338
338
339
338
337
338
339
340
338
337
339
341
341
339
337
338
341
345
348
355
365
377
387
393
396
394
383
365
343
323
312
307
306
307
312
319
327
333
332
332
335
337
337
335
334
336
338
339
337
338
340
343
343
340
338
340
342
343
340
338
339
341
342
341
339
339
343
346
346
344
344
345
346
344
343
343
346
349
349
348
348
349
350
348
346
345
344
344
343
343
343
345
342
338
336
338
340
338
334
331
332
334
335
332
330
332
335
335
333
331
332
335
336
334
332
333
335
336
334
332
333
335
335
334
333
334
336
337
336
334
335
337
337
336
334
335
337
337
335
334
335
338
338
337
335
336
338
339
337
335
336
338
340
338
336
337
339
339
338
335
336
338
339
337
336
337
339
340
338
336
337
339
339
337
335
337
339
340
338
336
337
339
339
338
337
337
339
339
338
336
337
338
339
337
336
337
340
340
337
335
336
339
339
338
336
338
340
340
338
336
337
340
341
339
338
339
340
340
338
337
339
341
342
340
338
340
342
341
341
342
344
345
345
343
341
343
346
345
343
342
344
348
349
345
342
342
344
345
343
340
338
339
339
338
337
339
341
340
338
337
339
341
341
338
336
337
340
343
346
351
362
374
383
390
396
397
389
371
349
328
315
309
306
306
310
318
325
330
332
333
337
339
338
335
335
336
338
337
336
336
340
344
344
342
339
339
342
342
341
339
340
342
342
340
340
342
345
347
345
344
345
347
346
344
343
345
347
349
348
347
349
350
349
348
345
346
345
344
342
341
343
345
343
338
335
337
339
338
333
331
333
336
336
333
332
334
335
335
333
333
334
336
336
334
335
336
337
336
335
334
335
337
336
335
334
335
337
337
335
335
336
338
337
335
334
336
338
337
335
333
335
337
337
337
335
336
337
337
335
334
335
337
337
335
333
335
337
338
336
334
336
339
340
336
335
337
338
339
337
336
337
339
340
337
335
338
339
339
337
337
338
340
339
338
337
338
340
340
337
335
337
340
340
338
336
337
340
340
338
337
338
340
341
339
337
337
341
339
338
337
338
340
340
337
337
338
341
341
338
336
338
341
340
338
336
338
341
340
340
342
345
346
345
343
341
343
345
345
343
342
344
348
350
345
341
342
345
345
343
341
340
340
340
337
337
338
340
340
337
337
339
340
340
338
338
340
342
343
343
349
359
371
381
388
395
399
393
377
355
335
322
312
306
303
308
316
324
330
332
333
337
339
338
336
335
337
338
338
336
336
339
343
343
341
339
340
342
343
340
339
340
342
342
339
338
340
342
345
345
346
347
348
347
343
343
345
346
347
348
349
350
351
350
348
347
348
347
343
341
342
344
345
344
339
336
337
340
339
334
331
333
334
334
333
333
335
336
335
332
332
334
335
335
333
332
334
336
335
333
332
334
337
336
333
333
335
337
336
336
335
336
337
336
334
334
337
338
337
335
335
336
338
337
336
336
337
339
338
337
335
336
338
338
335
336
338
340
339
337
336
338
339
338
336
336
338
340
340
338
337
338
340
339
336
336
337
340
340
337
336
338
339
339
338
337
340
341
341
338
337
338
340
340
338
337
339
341
340
338
337
339
342
341
339
338
340
342
341
340
338
340
341
340
337
338
341
342
341
338
337
339
341
342
338
337
339
341
341
340
343
346
347
346
343
343
344
345
345
343
343
344
347
348
345
342
343
346
345
342
342
342
341
339
338
338
339
341
340
337
337
340
342
340
337
338
340
342
341
341
345
355
367
377
384
392
399
396
381
361
340
325
313
305
302
306
314
323
326
328
331
335
338
337
334
333
336
338
337
335
334
339
343
344
339
340
342
342
342
340
340
341
343
342
340
340
342
343
344
344
345
346
346
345
343
344
345
347
347
347
349
351
351
349
347
346
348
347
343
340
340
342
345
344
340
338
338
339
338
334
332
334
336
334
331
332
333
335
334
333
333
335
337
336
334
334
336
337
336
335
334
336
336
336
333
333
336
337
336
334
335
336
337
337
335
335
337
339
337
335
335
337
339
337
336
336
337
339
337
335
335
338
339
338
335
336
338
339
337
336
336
338
339
339
337
336
339
340
338
336
337
339
340
339
336
336
339
341
340
338
338
340
341
340
338
337
338
339
339
338
339
340
341
339
338
337
339
340
339
337
337
339
341
339
337
338
341
341
338
337
337
339
340
339
337
338
339
341
340
338
338
339
341
340
338
337
339
340
339
337
340
343
345
344
342
342
344
345
343
342
342
344
345
346
345
343
343
343
342
341
342
342
341
337
335
336
339
341
339
337
337
340
342
339
336
336
339
341
339
340
344
353
364
373
380
389
398
399
386
367
348
331
317
308
303
305
312
319
324
327
331
335
338
337
335
334
337
338
337
335
336
339
343
342
339
339
341
343
343
341
341
342
343
341
339
340
341
342
342
343
346
348
347
345
343
343
346
346
345
345
347
350
349
347
345
345
347
347
343
340
341
343
344
341
339
337
337
338
338
335
333
333
333
332
331
333
335
335
333
332
333
336
335
333
332
333
336
338
335
334
334
336
338
336
334
334
335
336
336
335
336
340
339
338
335
336
338
339
337
335
335
339
339
337
335
336
338
339
338
337
338
338
338
337
336
337
339
340
338
336
337
339
338
336
334
336
338
339
337
336
337
339
339
337
336
337
340
340
338
337
338
339
340
338
336
337
340
341
340
338
338
339
339
337
337
338
340
340
338
337
338
341
342
340
339
339
342
342
340
339
340
342
342
340
339
340
342
342
341
339
341
343
343
341
339
340
342
344
342
339
342
346
348
345
344
344
346
347
346
345
345
346
347
348
346
345
345
345
344
342
343
344
341
337
336
338
341
341
340
337
338
340
340
338
337
338
342
341
338
339
343
352
363
371
378
388
398
401
391
374
355
337
322
310
303
304
312
318
323
326
331
335
338
337
335
335
337
338
336
333
335
339
343
343
341
341
343
343
341
339
341
343
344
341
340
341
343
343
341
342
345
347
348
345
344
344
344
346
344
344
348
351
351
349
347
348
350
348
344
341
342
344
344
342
340
339
338
337
336
335
333
333
333
332
331
334
336
336
334
332
333
335
335
334
333
333
335
335
333
332
333
336
336
333
332
334
337
337
336
333
334
336
336
335
334
334
336
337
336
334
335
337
337
334
333
335
337
337
336
333
334
337
338
336
335
336
338
337
335
333
336
339
339
336
334
335
338
339
337
336
337
339
339
337
336
337
339
340
338
337
337
340
340
338
337
337
339
339
337
336
338
340
340
340
338
339
341
341
338
337
339
341
341
339
338
340
342
342
340
338
338
341
341
339
338
339
341
341
339
338
339
341
340
338
337
338
341
341
339
338
341
346
347
345
342
342
345
346
344
341
342
345
345
345
345
346
345
344
342
341
342
344
341
337
335
337
340
340
339
336
338
340
339
337
336
337
339
340
338
337
341
350
358
366
375
384
396
401
394
379
361
342
325
311
303
304
310
315
320
323
330
336
338
337
335
337
339
338
337
336
337
338
340
341
340
342
343
343
341
338
340
343
343
341
339
340
341
342
339
341
345
347
347
344
342
344
347
347
346
345
350
353
352
348
347
348
351
352
346
343
343
345
345
344
343
342
341
339
338
337
336
335
335
334
333
335
337
337
334
333
334
336
337
334
333
334
336
336
334
333
334
336
336
335
334
335
337
336
334
333
335
337
336
334
333
335
337
338
336
334
336
338
338
336
334
335
338
339
337
336
337
337
338
337
336
337
339
339
337
336
337
339
338
337
336
338
339
339
338
338
339
339
339
337
336
337
339
339
337
335
337
339
340
337
336
338
341
340
338
337
339
341
340
339
337
338
340
339
338
337
339
341
340
338
337
338
340
341
340
338
338
340
339
338
337
339
342
341
339
338
339
341
342
339
338
339
342
342
340
338
340
344
346
344
342
342
345
345
343
341
343
345
345
344
345
346
346
345
343
341
343
345
342
338
336
337
340
340
338
338
339
341
340
337
338
338
341
340
338
338
342
347
355
362
371
383
394
400
397
385
369
351
331
315
306
304
309
315
318
321
327
333
336
336
335
336
337
336
334
333
335
338
338
340
339
341
344
342
339
338
339
342
341
340
338
340
343
342
339
339
344
347
346
343
343
345
346
345
343
341
346
350
351
347
346
346
348
348
345
341
341
344
343
342
342
342
340
338
336
335
336
336
334
332
332
334
336
335
333
332
334
336
335
333
332
334
336
335
334
333
335
337
336
334
333
334
336
336
334
333
335
337
336
335
335
337
338
337
334
333
335
337
337
335
334
336
338
337
335
334
336
338
337
335
334
337
340
339
336
335
337
339
339
336
335
337
339
338
336
335
337
339
338
338
338
339
340
339
337
336
338
340
339
337
336
338
340
340
337
336
338
341
341
339
337
339
341
341
339
338
339
340
340
338
337
338
340
340
338
337
339
341
341
340
340
341
341
341
340
338
340
342
341
339
338
339
341
341
338
338
339
343
346
345
343
344
345
344
342
342
344
345
344
341
343
346
345
343
340
340
342
344
343
338
335
337
340
339
337
337
338
340
340
338
336
338
340
339
337
336
341
346
353
359
367
380
391
398
398
389
375
357
336
318
308
305
307
312
316
320
328
334
336
336
335
335
337
337
336
336
338
339
339
339
340
342
344
341
340
339
341
344
343
340
338
340
343
342
340
339
344
348
347
344
343
345
347
346
344
343
346
351
351
349
348
348
349
349
347
344
343
344
343
340
340
342
341
338
336
336
338
338
335
331
331
333
335
335
332
331
333
336
335
333
333
334
335
334
332
332
333
335
334
333
334
335
337
336
333
333
335
337
337
335
334
336
337
336
334
335
338
339
337
335
335
337
339
337
335
335
337
339
339
335
335
335
337
337
335
336
337
339
338
336
335
338
339
339
336
335
337
339
338
336
335
337
340
339
337
338
339
340
339
336
336
338
340
339
337
337
339
341
339
337
336
338
340
339
337
339
339
340
339
337
336
338
340
340
338
338
340
341
340
338
338
340
341
341
339
339
340
341
340
339
339
340
341
340
338
337
339
342
344
343
343
343
345
343
342
342
344
346
344
341
343
348
347
343
340
341
344
346
345
339
335
336
339
339
337
338
338
339
338
336
337
339
340
339
337
336
339
344
348
355
365
376
386
394
398
393
379
362
341
322
309
305
305
308
313
320
326
332
334
334
334
336
338
337
335
335
336
340
337
337
339
343
344
341
339
339
341
343
342
340
340
341
344
342
340
339
343
348
347
344
344
345
346
344
342
344
346
350
351
349
349
349
349
348
346
344
343
344
344
341
341
343
343
339
336
335
338
338
335
332
331
335
338
337
333
332
334
336
334
333
333
335
337
335
333
333
335
337
336
334
333
336
337
336
333
333
335
336
336
335
335
336
337
337
335
335
337
339
338
335
334
337
338
338
336
335
337
339
338
335
335
337
339
338
336
336
338
340
339
336
335
338
339
338
335
336
338
339
338
336
336
338
341
340
338
337
339
340
338
337
337
339
341
340
338
338
340
341
339
338
337
340
342
340
337
337
339
341
340
338
337
339
340
339
337
337
339
341
340
338
338
341
342
340
339
338
340
340
340
339
339
340
342
341
339
339
341
342
343
344
345
346
346
344
342
343
344
346
344
342
343
347
348
345
342
342
344
345
344
341
338
338
340
339
338
338
340
341
339
337
337
340
341
340
337
337
340
344
346
352
361
373
384
392
398
395
386
370
347
327
314
308
306
307
311
317
324
331
333
333
335
337
337
337
336
335
336
338
336
335
339
343
344
343
340
339
341
343
341
340
339
341
342
341
339
339
343
347
347
344
343
345
346
345
342
342
344
350
351
349
347
348
350
349
347
345
344
345
344
342
343
345
344
340
336
336
339
340
336
332
331
334
336
336
333
332
334
336
334
332
333
335
336
335
333
334
336
337
335
333
333
336
338
337
335
336
338
339
337
335
334
336
339
339
336
336
337
338
337
334
335
338
339
338
335
335
337
338
337
335
335
336
337
337
335
336
338
339
338
335
336
340
340
338
336
336
338
339
338
337
338
339
340
340
337
337
339
341
339
337
337
339
340
338
336
336
338
340
339
337
337
339
340
339
337
338
340
340
339
337
337
339
340
338
337
338
341
341
339
337
337
340
342
340
339
339
340
342
341
338
338
340
341
340
338
338
340
342
343
343
343
345
345
344
341
343
344
345
343
341
341
346
349
345
341
340
343
344
343
340
337
338
338
338
338
336
338
339
337
336
337
339
340
338
336
337
339
341
344
349
359
371
382
389
395
397
391
375
355
333
317
309
306
306
309
316
324
330
332
332
335
338
339
337
335
334
336
338
337
336
340
342
343
341
339
339
341
343
342
339
340
342
343
341
339
339
341
346
346
344
344
346
347
346
344
344
346
348
349
348
348
349
350
349
348
346
345
344
342
341
342
343
344
339
335
336
339
340
336
332
332
333
335
334
332
333
336
337
335
333
333
335
336
335
333
333
334
336
336
334
335
337
338
336
333
334
337
338
337
334
335
337
337
336
334
335
338
340
338
335
335
336
337
336
334
334
336
337
336
334
334
337
338
337
334
334
336
338
337
335
335
338
340
338
335
335
338
340
338
336
336
338
340
339
337
337
339
339
339
337
339
340
340
339
337
337
339
341
339
337
337
339
341
340
338
338
339
340
339
337
338
341
341
339
337
337
340
341
339
338
337
339
341
340
338
337
339
340
339
336
338
339
341
340
338
337
340
342
342
342
344
346
346
344
342
343
345
346
344
343
343
348
349
346
341
341
344
345
343
341
338
338
339
338
338
339
340
341
338
338
338
340
341
340
338
338
341
342
345
348
358
369
379
387
392
397
395
381
361
338
321
312
307
305
307
313
321
327
331
331
334
337
339
338
335
336
338
339
338
337
339
342
343
341
339
338
340
342
341
338
339
341
342
340
339
339
341
345
345
344
344
346
347
345
343
342
345
348
350
349
349
351
351
350
348
347
346
345
344
342
341
343
343
340
335
336
338
340
336
332
331
333
335
334
332
334
336
337
335
332
334
335
336
335
334
335
336
338
336
333
334
337
337
336
335
335
337
337
336
335
335
337
337
335
333
334
336
338
337
335
335
337
338
337
335
335
337
337
336
335
335
337
339
337
336
336
337
338
337
335
335
337
338
338
335
335
337
338
336
334
335
338
339
338
336
338
340
340
338
335
336
339
340
338
336
337
339
339
338
336
337
339
340
339
337
338
339
340
338
336
337
339
341
340
338
339
341
342
341
339
339
341
341
340
338
338
340
341
339
337
337
339
340
339
337
337
339
340
339
341
343
345
346
344
343
343
346
346
344
342
343
346
350
348
343
341
343
345
343
341
340
339
340
339
338
339
340
340
339
337
337
339
340
338
336
336
339
342
343
345
352
364
375
382
390
395
395
385
367
345
326
315
308
303
304
311
319
325
329
329
331
335
338
336
336
334
336
338
337
335
336
340
342
340
338
338
341
342
340
338
339
341
342
340
339
339
341
344
346
345
345
346
346
345
343
343
345
347
348
348
348
350
351
349
347
348
349
347
343
341
341
343
345
341
336
335
338
340
337
333
332
334
336
336
333
332
335
336
334
332
333
335
337
335
333
333
335
337
336
334
334
335
336
335
332
333
336
337
336
334
334
337
337
336
334
335
337
337
336
334
334
336
338
337
334
334
337
338
337
336
336
337
339
338
336
336
338
339
338
336
335
338
339
338
335
336
338
339
338
336
336
339
341
340
338
337
339
340
339
337
337
340
341
338
335
336
340
341
340
338
337
339
339
339
337
338
340
340
338
336
337
339
340
339
338
338
339
341
340
337
338
340
341
340
337
338
340
341
340
338
340
342
342
341
339
339
340
341
340
341
344
347
346
345
342
343
345
346
344
342
343
345
347
347
343
342
343
345
344
342
341
341
340
339
338
338
341
342
340
337
338
341
341
339
337
337
339
340
341
342
349
361
372
381
388
395
399
391
374
353
334
319
311
306
304
309
317
324
327
329
332
337
339
338
335
335
338
339
338
336
337
342
344
343
339
340
343
343
342
339
339
341
342
342
340
340
342
343
345
345
346
347
346
344
342
343
346
348
348
348
350
352
351
349
347
347
349
346
342
340
342
344
344
343
338
337
339
340
338
333
331
333
334
333
333
334
336
337
336
334
334
335
337
336
334
334
336
337
336
335
335
337
337
336
333
334
336
337
334
333
334
336
337
336
334
334
337
338
337
335
335
338
339
337
335
335
337
339
338
335
335
337
338
336
334
335
338
339
338
336
336
338
339
338
335
336
339
340
339
337
337
340
339
338
336
336
338
340
339
337
336
338
340
339
340
338
340
342
340
337
337
340
341
339
338
338
339
341
339
337
337
339
341
340
338
338
342
341
339
337
337
340
341
339
337
337
340
341
339
337
338
340
342
339
338
340
340
341
341
339
342
344
344
342
341
341
345
346
344
342
342
344
346
347
344
342
343
344
344
341
341
340
339
338
336
337
339
340
338
335
336
339
339
338
336
337
338
339
339
340
346
357
368
377
384
392
399
396
381
360
339
323
311
304
303
308
317
322
325
327
331
335
338
338
336
335
337
338
336
336
336
340
344
342
340
340
342
343
342
340
340
343
344
342
339
339
341
342
343
343
344
346
347
346
345
345
346
346
345
346
349
350
350
348
346
346
348
347
344
341
341
343
344
343
339
337
337
338
337
334
332
333
334
333
332
333
335
336
334
333
334
336
337
337
335
335
336
337
335
333
334
336
336
335
333
333
336
337
336
333
334
336
338
336
334
335
336
337
336
335
336
338
339
337
335
335
337
337
336
335
336
337
338
337
336
336
338
338
337
336
336
337
338
337
336
337
339
339
337
336
337
339
341
339
337
338
339
340
339
337
337
340
342
338
336
337
339
340
338
337
337
339
340
339
338
339
341
342
340
338
339
342
342
339
337
339
340
342
340
338
337
340
342
340
338
338
340
341
339
338
338
341
340
339
337
338
341
342
340
338
342
345
346
343
342
343
344
345
344
342
344
346
346
347
345
343
344
344
343
341
341
342
340
338
336
337
340
341
340
338
338
340
340
338
337
338
341
342
340
340
345
354
366
375
383
392
399
398
385
365
345
330
316
307
303
306
315
321
325
327
331
336
338
337
335
335
337
338
336
336
336
339
342
341
340
341
342
343
341
339
339
342
343
341
338
339
341
343
343
344
345
346
346
344
342
343
345
347
347
347
348
350
350
348
346
347
349
348
344
342
341
343
345
343
340
337
338
340
338
335
333
334
335
334
332
332
336
337
335
333
332
335
336
334
333
333
335
336
334
332
333
335
336
336
334
334
336
338
336
335
335
336
337
336
335
335
337
338
336
334
335
337
339
336
334
335
337
337
337
335
336
336
338
336
335
336
338
339
337
335
336
338
339
337
336
337
340
341
339
336
336
339
340
339
336
336
338
339
338
337
337
339
339
338
337
336
340
340
337
335
337
339
340
337
335
337
339
340
338
336
337
339
340
339
337
337
340
341
339
337
338
340
341
339
337
338
340
341
340
338
338
341
341
340
338
340
342
342
339
337
341
345
346
344
341
343
345
347
345
342
343
345
346
346
345
344
345
345
344
341
342
344
341
338
335
337
339
340
338
336
337
340
341
338
337
339
341
341
340
340
344
352
362
370
379
388
398
401
391
371
351
334
320
308
302
303
311
319
324
327
331
337
338
337
335
335
338
339
337
335
336
338
342
343
341
342
343
342
341
340
341
343
342
341
338
339
342
344
344
343
345
347
348
345
344
345
347
347
345
345
348
350
351
349
347
347
349
350
344
340
341
345
345
344
341
338
337
338
337
335
333
334
336
334
332
333
334
335
333
331
333
334
335
334
333
333
335
336
334
332
334
335
336
335
333
333
335
336
335
334
335
337
338
336
335
335
338
339
336
334
334
337
337
336
335
335
337
339
337
336
336
338
339
337
335
336
339
339
338
336
336
338
338
338
336
336
338
339
338
336
337
339
341
339
336
335
338
339
338
336
337
339
339
337
336
337
340
340
338
336
337
339
340
340
337
337
339
339
338
336
337
339
340
339
337
337
339
340
338
337
338
340
340
338
336
337
339
341
340
338
338
340
341
339
336
337
340
341
339
337
339
345
345
344
341
343
345
345
342
341
342
344
345
344
345
344
344
344
342
340
341
343
341
337
335
337
339
339
338
336
338
340
341
338
336
337
338
339
337
338
342
350
359
368
375
385
395
399
392
377
359
341
324
310
303
303
310
316
320
323
329
333
337
337
335
335
337
337
336
334
336
337
341
342
341
341
342
341
340
339
342
343
343
341
339
341
343
343
341
341
344
347
346
344
342
344
348
347
345
343
349
351
351
348
348
349
350
350
345
340
341
344
345
344
342
340
340
340
339
338
336
335
333
332
332
334
336
336
334
332
335
336
337
335
333
334
337
337
334
333
335
338
339
336
334
335
337
338
336
334
335
338
338
336
334
334
337
338
338
336
336
338
339
337
335
336
339
339
336
334
335
338
338
337
335
336
338
339
336
336
337
340
340
338
336
336
339
339
337
335
337
339
340
337
335
336
339
340
338
335
337
339
339
338
336
338
340
341
339
337
337
339
340
339
337
338
340
341
339
338
339
341
342
340
339
340
342
342
339
338
339
341
341
338
337
337
340
341
339
338
339
341
341
340
338
340
342
342
339
338
339
345
347
346
343
344
346
346
344
342
344
345
345
343
344
346
346
345
341
341
342
344
342
338
335
337
339
341
339
336
337
339
339
337
