0
342
344
346
346
345
343
342
344
348
348
345
344
345
346
344
343
343
342
341
339
337
338
341
342
340
337
338
340
341
341
339
339
341
341
343
345
352
364
375
382
388
396
400
391
374
353
334
320
312
305
306
312
320
326
329
331
333
338
340
339
336
336
337
339
338
337
337
342
344
343
340
340
342
343
343
341
341
343
343
342
339
340
342
343
345
345
346
348
348
345
343
344
345
347
347
348
349
351
351
349
347
348
349
346
343
341
343
345
346
342
337
336
338
340
338
334
333
334
335
334
332
333
335
336
334
332
333
336
337
335
332
333
336
337
336
335
335
336
336
336
335
335
337
337
336
334
336
337
338
337
335
336
339
339
337
335
336
339
339
338
336
336
338
338
337
336
337
339
340
338
336
337
339
340
339
336
337
339
341
339
337
338
340
340
338
336
338
341
341
338
337
338
341
341
339
337
337
340
341
339
337
338
339
340
338
338
339
341
341
339
337
339
341
341
339
338
339
341
341
339
338
339
341
342
340
339
338
340
341
339
338
339
342
342
339
338
339
341
342
340
338
339
341
343
341
341
345
348
348
345
343
344
346
346
344
343
344
346
348
348
344
343
344
346
344
342
343
341
340
338
337
339
341
341
339
337
338
341
341
339
338
339
341
342
341
343
349
360
371
379
386
396
401
396
379
357
338
324
312
306
303
308
318
324
327
329
331
337
340
338
336
336
338
339
338
336
337
341
343
342
341
341
344
345
342
340
341
344
345
342
341
341
343
344
344
345
346
348
348
346
345
347
348
347
346
347
350
352
351
349
347
349
351
348
346
342
343
345
345
344
341
339
340
341
339
334
333
335
336
334
332
334
337
337
335
334
334
336
337
335
333
334
336
337
335
334
336
339
339
336
334
335
337
338
336
335
336
338
339
337
336
337
339
339
338
336
337
339
340
338
336
337
340
339
338
337
339
341
341
339
337
338
340
339
338
338
339
341
341
340
340
339
340
339
338
337
339
341
340
337
336
338
340
340
338
337
339
341
341
340
337
338
340
340
338
336
339
341
341
339
337
338
340
340
339
337
338
340
342
339
337
338
341
341
340
338
338
340
340
339
338
339
340
340
338
337
339
342
344
341
339
340
342
342
341
340
343
346
346
344
342
344
346
345
343
342
343
346
346
347
344
344
345
345
344
342
343
343
339
337
337
339
341
341
338
337
338
341
340
339
337
338
340
340
340
341
348
360
368
376
383
393
401
399
384
365
345
330
316
307
303
306
316
323
327
330
334
339
341
339
337
338
339
339
336
336
338
342
343
342
341
343
344
343
342
340
341
344
344
341
340
341
343
343
343
345
347
349
348
346
344
346
348
347
346
347
349
352
351
348
347
348
351
348
344
343
344
347
346
343
340
339
340
340
338
336
335
336
336
334
333
335
338
338
335
334
335
338
337
335
335
335
337
336
335
334
336
337
336
336
335
336
338
338
336
335
336
337
337
335
336
337
339
338
336
335
337
339
340
336
335
337
338
339
338
335
337
339
338
336
335
336
339
339
336
336
337
339
339
336
336
338
341
340
338
337
337
339
339
337
336
338
339
339
338
338
339
341
340
339
337
338
340
340
338
337
339
341
340
338
337
339
341
341
339
338
340
341
340
338
337
340
342
342
339
338
340
341
341
339
339
341
342
341
339
339
342
344
343
340
339
340
343
342
339
339
343
348
348
345
343
344
346
345
343
343
345
349
346
346
347
345
345
343
342
342
344
345
342
338
336
339
342
340
337
336
339
341
340
338
338
341
343
342
339
341
346
354
363
371
381
391
400
401
389
372
353
336
319
308
303
305
314
320
324
328
334
338
338
336
336
338
340
340
339
338
339
340
343
343
342
343
344
343
341
341
342
345
344
341
339
341
344
344
342
344
347
348
348
346
346
347
347
347
345
346
350
353
351
348
348
350
351
349
344
342
344
346
345
342
342
340
339
338
337
337
336
336
335
334
334
335
336
337
334
333
334
336
336
333
334
336
339
337
336
335
337
338
337
335
335
336
338
338
336
336
337
340
339
337
336
337
339
337
336
336
337
339
338
336
336
337
340
339
337
336
337
341
341
338
336
339
340
340
338
338
340
340
340
337
336
337
339
338
337
336
338
340
340
338
337
339
341
340
337
336
338
341
339
338
338
340
341
339
338
338
340
343
342
338
337
339
340
339
337
338
339
341
340
338
337
339
341
341
339
339
339
340
340
338
337
339
341
340
339
338
339
342
341
338
338
339
341
340
338
338
342
345
344
342
341
344
345
345
343
343
345
346
345
345
346
347
347
345
342
341
343
345
341
337
336
338
341
340
337
337
340
342
340
337
337
340
342
340
338
340
344
351
359
367
377
389
399
400
392
378
359
342
324
310
306
305
312
317
322
326
333
337
337
336
337
338
338
337
336
335
337
339
340
340
341
342
343
342
341
341
343
343
341
340
340
342
344
343
341
343
346
348
348
344
344
345
346
345
343
344
349
352
352
349
346
348
351
349
344
341
342
345
344
343
343
341
339
340
338
338
337
336
335
334
334
336
337
336
334
334
336
337
336
335
334
336
336
335
333
334
336
339
338
336
334
336
338
337
335
336
337
338
336
334
335
337
337
335
333
334
336
338
337
335
335
337
338
337
336
335
337
339
337
336
336
338
339
338
337
337
339
340
339
337
337
339
339
339
337
338
340
339
338
336
336
338
340
339
337
336
338
341
340
340
338
340
340
339
337
339
341
341
340
338
339
341
342
340
338
338
340
342
341
339
340
341
342
341
339
339
341
342
341
339
339
341
342
341
338
339
340
342
341
339
339
341
343
341
338
339
342
346
346
343
344
345
347
346
343
343
345
346
347
343
346
347
346
344
343
344
345
347
343
338
337
339
341
340
338
338
339
341
340
339
339
340
341
340
339
339
344
349
355
364
375
385
395
399
395
383
366
347
328
311
305
304
308
313
318
324
330
334
335
335
337
338
338
337
335
336
338
339
339
339
341
343
344
343
340
341
343
344
342
340
340
341
343
342
339
342
348
350
348
344
344
346
348
347
345
346
350
352
350
347
348
350
351
349
346
343
343
346
344
343
343
344
342
339
337
338
338
336
336
335
335
337
338
336
334
335
336
338
336
334
334
336
338
337
335
335
336
338
336
334
335
337
339
337
336
336
338
338
337
334
334
336
338
337
335
336
338
339
337
335
336
338
339
337
336
337
339
339
339
337
337
339
340
339
336
337
340
341
339
337
337
340
341
340
339
337
339
339
338
337
337
339
341
339
337
337
341
341
340
338
338
340
341
340
337
338
340
341
340
338
339
341
341
340
338
339
340
341
340
338
338
341
342
343
341
339
341
342
341
339
340
341
343
341
339
339
341
342
342
340
340
341
341
339
338
339
342
345
346
344
344
346
348
346
344
344
345
345
345
342
346
348
348
345
343
343
345
346
343
338
338
340
341
340
338
339
340
342
340
338
338
340
341
340
339
339
342
347
353
362
372
383
393
399
398
388
373
354
333
315
306
305
309
312
316
323
329
334
335
335
337
339
339
338
336
336
338
339
338
338
342
344
345
341
341
340
342
343
341
339
341
343
343
341
339
341
345
348
346
344
346
348
347
346
343
344
349
351
351
348
348
350
350
348
345
344
344
346
343
342
344
345
341
337
335
336
338
337
333
331
333
336
338
335
333
333
335
337
335
334
334
337
338
335
334
335
337
338
336
334
335
337
338
337
336
336
338
339
338
335
336
338
338
336
335
336
338
339
338
336
337
339
339
338
335
336
338
338
337
336
337
338
340
339
338
337
341
339
338
337
337
339
340
338
338
339
340
342
339
338
337
340
341
339
336
337
340
341
339
338
337
340
341
339
337
338
341
341
340
338
338
340
341
338
336
338
340
341
339
337
338
341
342
340
337
338
340
342
341
338
339
341
342
340
338
339
341
342
341
338
338
341
342
341
339
340
342
343
345
343
344
346
346
344
342
343
346
346
344
342
345
350
348
344
341
343
346
347
344
339
338
340
341
339
337
337
339
340
339
337
338
341
340
339
338
339
343
347
350
357
368
381
390
396
397
392
379
360
339
321
310
306
306
310
315
322
331
334
333
333
336
338
338
337
335
337
338
339
338
338
341
345
343
342
340
341
343
343
341
340
340
342
342
341
339
341
346
348
346
343
344
346
346
344
343
345
349
351
351
349
349
351
350
348
346
346
345
345
343
342
343
345
343
339
338
339
340
338
334
332
334
336
337
335
334
335
337
337
335
333
335
337
337
335
333
335
338
338
336
334
335
337
338
337
335
335
337
339
336
334
335
338
338
336
335
337
339
339
337
335
336
338
338
337
335
335
338
340
338
336
337
339
339
337
336
337
340
340
339
337
338
341
341
338
337
338
340
341
339
338
339
341
341
339
338
338
340
340
339
337
338
341
340
338
337
339
341
341
340
338
339
341
341
340
338
339
342
342
340
339
339
342
342
341
340
341
343
342
341
339
339
341
341
340
339
340
342
342
340
340
341
343
343
341
339
341
343
344
345
344
345
347
347
346
344
345
347
347
345
346
347
351
351
345
343
344
346
346
345
340
338
339
340
339
338
339
339
339
337
338
339
341
340
337
337
339
342
344
347
353
365
377
386
394
399
396
385
367
343
324
312
308
306
307
313
320
327
333
334
334
336
338
338
337
336
337
339
340
340
340
343
345
345
342
340
341
343
343
341
340
343
344
344
342
341
342
347
350
349
346
346
348
348
346
345
346
349
351
352
350
350
352
352
350
348
347
347
346
345
343
343
345
343
338
335
338
340
339
335
333
334
336
337
335
334
336
339
338
335
333
334
337
337
335
333
335
338
338
336
334
335
336
336
335
334
335
337
337
336
335
335
338
338
336
335
337
339
339
337
336
337
340
340
338
337
338
340
339
337
335
337
339
339
337
336
336
339
339
338
336
339
340
340
339
337
339
341
339
338
338
339
340
341
340
338
339
340
341
338
337
339
341
341
340
338
340
342
341
339
337
339
341
341
339
337
338
340
341
340
338
340
340
340
339
338
339
341
341
339
338
339
342
341
339
337
339
341
342
340
339
338
340
342
342
340
341
343
343
344
345
346
346
346
344
343
345
348
347
345
343
345
350
350
346
343
343
346
346
344
342
339
339
340
339
338
339
342
343
340
338
340
342
341
340
338
339
341
344
346
352
363
376
387
393
398
399
391
375
353
331
317
312
307
307
311
320
327
332
334
334
337
340
339
337
336
338
339
339
338
338
341
345
345
342
340
342
345
344
342
340
342
344
344
342
341
341
344
346
346
345
347
349
349
345
344
345
347
350
350
349
349
351
351
348
347
347
346
344
342
343
344
346
344
340
337
338
341
341
335
332
333
336
338
336
334
335
337
337
335
334
336
339
337
335
334
336
337
337
335
335
336
338
337
334
333
335
337
338
335
335
336
339
338
336
336
338
340
338
336
335
336
339
338
336
335
336
338
337
336
336
337
339
339
337
336
337
339
339
336
336
338
340
339
338
338
338
339
339
337
337
338
340
340
338
337
338
340
339
337
337
339
341
341
339
338
339
341
342
341
339
338
340
340
339
338
338
340
340
339
339
340
342
341
339
338
339
342
343
340
338
338
340
341
339
339
340
342
341
339
338
339
342
342
339
338
339
342
342
342
343
346
347
347
344
343
345
346
346
344
343
343
348
349
345
342
344
347
346
344
343
340
340
341
338
337
339
341
341
339
338
340
341
341
338
338
340
342
343
344
349
359
371
380
389
394
399
394
379
357
336
321
312
307
304
308
318
325
329
331
332
337
340
340
336
335
338
339
338
337
336
340
344
344
342
340
341
343
343
341
341
343
345
344
342
340
342
344
346
345
345
346
348
348
347
346
347
348
348
349
349
350
352
350
348
347
349
348
345
342
342
344
346
343
339
337
339
341
340
336
332
333
335
335
333
332
334
337
336
334
333
335
337
337
335
335
336
338
337
335
334
336
338
337
336
334
335
337
337
336
336
337
340
339
336
334
337
339
338
336
336
338
339
337
335
335
337
339
338
336
335
337
339
339
337
336
337
340
339
337
336
338
342
341
337
337
338
341
340
338
337
339
340
340
338
337
339
340
340
338
338
340
343
341
339
339
341
343
341
339
338
340
341
340
339
337
339
342
341
340
340
342
342
341
338
337
339
341
341
339
339
341
343
342
340
338
341
342
342
340
341
341
342
340
339
337
340
342
343
342
343
346
349
347
344
343
346
350
346
344
343
345
348
349
347
343
343
345
345
343
343
342
341
339
337
337
339
342
342
340
339
341
342
342
340
339
340
342
341
342
346
355
368
377
384
392
399
398
385
364
343
326
316
308
304
307
316
323
328
330
332
335
340
339
337
335
337
340
340
338
335
338
343
344
342
341
342
344
343
340
339
341
343
342
340
340
341
344
345
344
345
348
347
346
345
343
345
346
347
347
348
350
351
349
347
347
349
349
345
341
341
342
345
344
340
337
338
340
339
337
332
332
334
334
332
332
334
336
335
333
333
334
337
335
333
334
336
337
336
335
334
336
338
337
336
335
338
340
339
336
335
337
339
338
336
335
337
339
338
336
336
338
340
338
336
335
337
338
337
335
335
337
339
338
338
336
338
340
338
336
336
338
340
339
337
338
340
341
340
337
337
339
340
339
337
337
338
340
341
339
338
340
342
340
338
339
341
341
340
338
339
341
342
340
339
338
341
342
341
339
338
340
341
341
339
339
340
343
341
339
338
341
342
342
339
339
341
343
342
340
339
340
342
342
340
340
341
343
342
340
342
346
348
346
343
342
344
345
344
342
343
345
349
348
346
343
343
344
344
343
342
342
340
339
336
336
338
341
340
337
338
341
342
342
340
339
340
341
340
341
345
355
364
373
381
389
399
400
389
370
348
331
318
308
302
304
312
320
325
327
331
335
338
337
335
335
337
338
337
336
335
338
342
342
339
339
341
343
342
340
340
343
343
342
341
340
341
343
343
344
344
346
347
346
345
346
345
347
346
348
348
351
352
350
348
348
350
349
345
341
342
344
345
344
340
337
338
339
339
336
332
333
336
336
334
334
335
337
336
334
334
337
337
336
335
335
336
338
337
336
336
337
338
337
335
335
336
338
338
336
336
340
339
338
335
335
337
339
338
336
336
338
339
338
336
336
337
338
338
336
338
340
341
340
337
338
340
342
339
337
337
339
341
339
336
337
339
340
340
339
338
340
342
340
337
337
340
342
341
339
338
339
341
340
338
338
340
341
340
339
339
340
342
340
337
338
340
342
340
338
339
341
342
341
339
339
341
342
342
338
338
341
342
341
339
339
340
342
340
338
338
340
341
340
338
338
340
342
342
339
341
344
347
345
343
343
345
345
344
342
344
346
347
346
346
344
345
345
343
342
344
344
343
340
338
337
339
340
340
338
338
340
341
339
338
339
342
344
342
342
344
351
362
372
379
388
397
401
394
376
356
339
324
312
305
305
311
319
324
328
333
336
339
339
338
336
338
339
337
335
335
338
342
343
341
342
344
345
342
340
340
343
343
341
340
341
343
344
342
343
345
349
349
347
345
345
348
347
345
344
347
350
352
351
349
348
350
352
346
343
343
345
345
344
342
339
339
340
339
337
334
335
336
335
333
334
336
337
335
333
334
336
337
335
333
335
337
338
336
335
335
337
338
338
335
335
337
338
337
335
334
336
338
337
336
336
338
339
338
336
336
338
338
339
337
337
338
339
337
336
337
338
339
338
336
336
337
339
338
336
336
338
340
338
337
338
340
341
340
338
338
340
341
339
337
338
339
340
340
338
339
341
342
341
342
339
341
341
340
338
338
341
341
339
338
339
342
343
341
338
338
341
342
340
337
339
341
342
340
339
339
341
342
339
338
339
340
340
339
338
338
340
341
340
339
339
342
341
340
338
339
344
347
346
343
342
344
345
343
342
344
346
346
344
345
345
344
343
342
341
341
343
341
338
336
337
339
340
338
338
337
340
340
339
337
338
340
340
338
337
341
349
358
367
376
385
396
401
396
382
364
345
328
313
305
304
310
318
322
325
329
333
336
336
336
335
337
338
338
337
337
338
341
343
342
342
344
344
343
341
342
343
344
342
340
341
344
344
343
343
346
348
348
346
344
345
347
348
346
345
349
352
352
350
348
348
350
351
348
343
342
344
345
344
342
340
340
340
340
337
337
335
335
334
333
334
336
337
337
333
334
337
337
335
333
334
335
336
335
335
335
337
337
336
335
336
338
340
339
335
335
337
339
337
336
337
338
338
337
335
337
338
338
337
336
336
338
338
336
334
335
337
339
337
337
337
339
340
337
336
337
339
339
338
337
340
342
341
338
337
337
340
340
339
337
338
339
340
337
336
336
339
340
338
336
338
341
341
338
337
339
340
340
339
338
338
340
341
340
338
339
341
341
340
339
340
343
343
341
339
340
342
342
340
338
339
342
342
340
339
340
341
341
340
339
339
342
342
340
338
340
346
348
346
344
344
347
347
346
345
345
346
347
346
348
350
348
346
344
343
344
347
346
341
338
339
341
341
340
339
340
342
342
342
340
340
341
342
341
339
343
348
356
365
374
383
395
401
399
387
371
352
334
318
307
304
309
315
319
323
329
334
336
337
336
337
339
338
337
336
336
339
342
342
341
343
344
344
341
340
341
343
343
342
340
342
344
344
342
343
346
349
349
347
345
346
349
349
347
345
347
351
352
350
348
349
351
351
347
343
343
346
346
343
342
342
341
340
339
337
337
335
335
333
333
334
337
337
334
333
334
337
336
333
332
334
337
337
335
334
335
337
337
335
334
335
337
338
336
335
336
338
338
335
335
337
339
338
336
335
336
339
339
336
336
337
338
339
338
335
338
339
339
336
335
337
339
339
337
335
336
340
339
337
337
339
341
340
339
338
339
340
340
339
337
338
339
341
339
338
338
341
342
339
337
338
341
340
338
338
340
342
342
339
339
340
341
341
340
338
339
341
342
340
339
341
342
342
341
339
339
342
343
340
339
340
342
341
339
339
341
342
342
340
338
340
342
343
341
339
341
344
347
346
344
345
346
345
343
342
344
346
345
344
345
348
347
344
344
342
343
345
344
339
336
337
341
340
338
337
339
342
342
339
338
340
341
342
338
337
340
346
352
359
368
378
389
397
397
390
376
359
339
319
308
305
308
312
316
321
328
334
336
337
337
338
339
338
337
336
338
340
339
340
341
344
343
344
341
340
342
345
344
341
340
341
343
343
342
341
345
349
349
347
345
347
348
349
346
345
348
353
353
349
348
350
352
351
348
344
344
345
346
345
345
345
343
340
337
337
339
338
336
333
332
335
336
335
333
333
335
337
337
335
334
336
339
338
335
334
336
339
338
337
335
337
338
338
337
336
337
340
339
336
336
337
340
339
337
336
338
340
339
337
336
338
340
338
337
336
338
339
339
337
336
338
340
340
339
337
338
341
340
337
336
338
339
338
337
337
339
340
339
337
336
337
340
340
338
336
338
341
341
338
337
338
342
341
339
338
339
342
340
339
338
339
341
340
338
338
340
343
341
338
337
340
342
341
340
339
340
342
341
339
339
341
342
341
339
338
342
343
341
339
339
341
343
342
339
338
339
343
345
344
343
344
346
346
344
343
346
346
344
341
344
349
349
346
342
342
343
345
345
341
338
338
340
339
337
338
339
339
339
338
338
339
340
340
338
337
340
345
349
356
365
377
387
396
398
392
381
364
343
324
311
306
305
309
314
320
327
333
335
335
336
337
339
338
336
336
337
341
338
339
341
343
345
344
342
341
342
343
343
341
340
343
345
345
342
340
344
349
349
347
346
345
347
347
344
343
347
352
353
350
349
349
351
350
348
346
345
345
345
342
342
344
343
339
337
336
339
339
335
333
333
334
336
336
333
333
334
337
337
334
334
335
337
338
335
335
337
338
338
336
336
338
340
339
337
336
338
339
339
337
336
337
338
338
336
336
338
340
339
337
336
338
339
339
336
335
338
340
339
337
336
338
339
338
336
336
338
340
339
337
337
340
341
339
337
337
339
339
338
336
337
340
341
340
338
337
339
340
340
338
338
340
341
339
337
336
340
341
341
338
338
340
342
341
338
338
341
341
340
339
337
340
342
341
339
339
341
342
341
339
339
341
342
341
338
339
341
343
341
339
338
341
343
343
341
341
342
343
345
346
347
347
348
346
344
343
346
347
347
345
345
349
351
346
343
342
345
346
345
340
338
339
341
340
339
338
340
341
340
338
338
340
341
340
339
339
341
344
347
353
362
375
385
393
397
396
388
374
352
330
315
309
308
308
311
317
326
331
334
335
336
338
339
338
336
336
338
340
338
336
339
343
344
342
340
340
343
345
342
340
339
341
342
341
339
340
344
349
347
344
344
347
348
346
343
343
346
350
350
348
348
349
351
349
347
347
346
346
346
343
343
345
343
339
336
337
340
339
336
333
333
335
337
336
334
336
337
339
337
335
335
336
338
336
334
335
336
337
337
335
335
337
337
337
336
336
337
338
337
336
336
338
339
336
335
336
338
338
336
334
336
338
338
336
335
336
337
338
337
336
337
338
340
337
335
335
337
339
338
336
336
338
339
338
338
337
339
339
337
336
337
339
340
338
337
338
340
340
338
336
336
339
340
339
338
338
340
341
339
337
339
341
342
340
338
339
342
342
340
338
338
340
341
340
337
338
341
342
340
339
341
341
342
341
339
339
341
342
340
338
339
341
342
340
338
339
342
343
343
343
346
347
347
346
344
345
348
350
347
344
344
350
351
348
344
343
346
347
345
343
341
341
342
341
340
340
342
343
342
339
341
343
343
341
338
339
341
344
345
349
359
371
381
390
396
399
394
378
357
336
322
313
308
306
309
317
325
330
333
332
336
339
341
339
337
337
339
341
340
337
340
344
345
343
341
341
342
343
342
341
340
342
342
342
340
342
344
348
348
346
347
348
348
346
344
346
347
349
350
349
350
352
352
349
347
348
347
345
343
342
344
345
345
340
337
338
341
342
337
333
334
336
337
336
333
334
337
338
336
334
335
337
338
336
334
335
338
337
335
334
335
338
337
336
334
336
339
339
337
335
336
338
339
337
335
335
338
338
337
335
337
339
338
337
336
337
339
339
337
336
337
340
340
338
336
337
340
340
338
335
337
339
339
338
337
338
339
340
339
338
338
340
341
338
336
338
340
341
338
336
337
341
341
338
337
339
341
341
340
338
342
341
344
340
338
339
340
340
338
337
339
341
342
341
338
339
342
343
340
339
340
342
341
340
339
340
342
341
339
338
339
341
342
340
339
339
341
342
342
343
346
348
347
344
343
344
347
346
344
342
344
347
349
346
342
343
345
346
346
344
342
341
340
340
340
340
341
341
339
337
339
341
340
338
336
338
341
342
343
348
356
368
377
386
393
399
397
385
365
342
326
314
308
304
306
314
323
329
332
332
336
339
340
339
337
337
338
339
337
336
339
344
345
342
341
342
344
344
342
342
342
345
345
343
341
341
345
346
346
347
348
348
348
346
345
347
349
350
350
350
351
352
351
348
346
347
348
345
342
341
343
346
345
341
337
338
340
340
337
332
334
335
337
334
332
334
337
337
335
335
336
337
336
335
334
336
338
338
336
335
336
338
338
335
335
336
337
339
336
335
337
339
339
337
335
336
338
338
336
336
337
339
339
337
337
338
340
340
338
337
338
340
340
338
338
338
340
341
339
337
338
340
339
338
337
339
341
340
339
338
339
339
340
338
338
339
341
340
339
338
338
341
341
339
338
339
340
340
339
338
340
341
342
340
339
340
341
341
339
338
339
341
341
340
339
341
345
344
341
340
340
343
342
339
339
340
342
341
340
339
340
341
341
340
340
340
342
342
341
343
347
349
348
344
344
345
348
345
343
344
347
348
350
348
345
343
345
345
344
343
343
342
341
339
339
340
344
343
340
338
339
341
341
338
338
340
342
341
342
345
354
366
375
383
392
400
401
390
369
348
330
318
309
304
306
314
321
327
328
331
335
339
339
336
335
337
339
338
336
335
339
344
344
342
340
342
344
343
340
340
342
344
343
342
342
344
344
343
344
345
347
348
347
345
344
345
346
347
346
348
350
351
350
348
347
349
349
346
345
342
345
346
345
342
338
337
339
339
336
333
333
336
336
334
334
335
336
336
334
334
336
337
336
334
333
336
338
337
335
334
335
336
336
334
335
335
336
336
334
334
336
337
337
335
335
337
339
338
336
334
335
337
337
335
335
336
338
337
336
336
338
339
338
336
336
337
340
340
337
337
339
340
338
336
336
338
340
339
337
337
339
340
339
338
338
339
340
340
338
338
340
342
341
339
338
339
340
338
337
337
339
340
339
338
337
338
340
339
338
338
339
341
340
338
340
340
342
340
338
338
340
344
343
341
339
341
343
341
339
340
343
344
342
339
339
341
343
341
338
342
346
348
346
343
344
345
346
345
342
343
344
346
347
347
345
345
345
344
343
344
343
342
339
336
337
340
342
340
337
338
339
342
340
338
338
339
341
341
340
343
351
362
371
379
388
397
400
391
373
354
337
323
312
304
305
312
320
324
327
330
335
338
338
336
336
337
338
338
335
335
338
344
343
342
342
343
344
342
341
342
344
344
342
340
340
342
344
343
345
347
348
348
346
345
345
347
347
346
345
348
351
353
350
348
348
349
350
346
343
342
345
346
345
342
340
339
340
340
338
336
335
335
334
333
334
336
336
335
334
335
337
338
336
334
334
336
337
336
335
335
337
338
336
334
335
337
338
336
334
335
337
339
337
335
334
336
338
336
334
335
337
338
337
335
336
338
339
338
336
336
338
339
338
336
336
339
340
338
336
337
340
341
338
336
336
338
340
339
337
338
339
339
338
337
338
340
340
338
336
337
339
341
339
337
338
340
340
338
336
337
339
341
339
338
340
341
341
339
339
339
340
341
339
337
338
339
341
340
338
339
341
342
340
339
340
342
343
339
338
337
340
341
340
339
340
342
342
341
338
340
344
346
345
343
343
345
346
343
341
341
344
345
346
347
346
345
345
343
341
342
343
342
339
338
338
340
341
340
338
338
340
341
340
337
337
339
340
340
338
342
349
359
368
377
385
394
400
395
380
362
344
327
313
305
305
311
318
322
325
329
334
338
338
336
336
338
338
337
334
335
337
341
342
341
342
343
343
342
340
340
343
343
341
339
340
342
343
341
341
344
348
349
346
344
345
347
347
345
344
348
352
352
349
347
348
351
351
347
343
343
345
346
344
342
340
341
340
338
338
336
336
336
334
332
333
335
336
335
333
334
335
334
333
333
334
337
338
336
334
336
339
339
336
334
335
339
339
337
335
335
337
338
336
334
335
338
337
337
335
336
338
339
337
336
336
338
338
337
335
337
339
340
338
336
337
339
340
338
338
339
341
341
339
337
338
341
341
338
337
338
339
340
338
336
337
340
340
338
337
338
340
341
339
338
339
340
340
338
337
339
340
340
338
337
339
341
341
340
340
340
341
341
340
337
338
340
341
338
337
339
342
342
339
336
339
341
342
339
340
340
341
341
339
338
340
342
342
340
339
340
345
348
347
344
343
346
346
345
343
344
346
347
345
346
348
347
345
342
341
343
346
344
339
337
337
340
340
339
337
338
340
340
337
337
338
340
340
338
337
341
347
356
364
372
383
393
400
398
386
369
350
332
316
307
304
309
316
320
323
329
334
336
337
336
337
339
339
337
336
336
338
340
342
341
342
343
342
340
339
341
343
342
340
339
340
342
342
341
341
346
349
348
345
344
346
348
347
345
344
348
353
352
349
347
348
352
350
346
342
343
345
344
343
342
342
341
340
338
338
338
338
336
334
333
335
337
337
336
333
335
339
338
337
335
337
338
337
335
334
335
337
336
334
335
337
338
337
335
334
337
339
338
336
335
337
338
337
336
335
337
339
338
336
336
337
339
338
337
336
337
340
340
338
337
339
341
339
337
336
337
339
339
338
337
338
340
339
337
336
337
339
340
337
336
338
340
340
337
336
338
340
340
338
337
338
340
339
338
335
338
341
341
340
337
338
339
340
339
338
339
341
341
338
338
339
342
341
339
338
339
341
341
339
339
340
342
341
340
339
340
342
342
340
337
338
340
340
337
336
338
342
345
344
343
344
346
345
343
343
345
347
346
343
344
347
347
344
341
341
343
345
345
339
336
337
340
340
338
336
338
341
341
339
339
340
341
341
339
338
341
346
352
360
369
380
392
400
399
391
377
358
337
319
308
305
308
311
316
321
328
334
334
335
336
338
339
338
335
334
338
339
338
339
340
341
342
342
340
339
341
344
343
341
340
341
342
342
340
340
344
348
348
345
345
345
347
347
345
344
347
351
352
349
347
348
350
349
347
344
343
344
342
341
341
342
340
338
336
336
338
337
334
331
330
333
335
335
333
331
333
335
334
332
332
335
337
336
334
332
334
336
336
335
334
336
337
336
334
333
335
338
337
335
334
336
338
336
334
334
335
338
337
336
336
337
338
336
334
335
337
338
337
335
334
336
339
340
337
336
337
339
339
337
336
337
339
339
336
337
339
340
338
336
336
338
341
340
337
336
338
340
340
337
336
338
339
339
337
336
339
341
340
337
337
340
342
340
338
339
340
342
340
338
338
339
341
341
338
338
340
341
340
337
338
340
342
341
338
337
339
340
341
338
338
339
341
341
339
339
341
343
344
344
344
344
346
344
343
343
345
348
346
343
345
349
349
346
342
341
343
345
343
339
337
339
341
341
338
338
340
342
340
338
338
339
342
341
337
337
340
344
348
355
366
377
387
395
397
393
382
365
343
323
310
306
306
309
313
320
328
334
335
335
337
339
340
338
335
336
339
340
339
339
341
344
345
344
342
342
343
345
344
342
341
342
344
343
340
340
344
348
348
345
344
346
348
347
344
344
348
352
352
349
347
349
350
351
348
346
345
346
345
342
342
344
343
340
337
337
340
340
336
333
333
334
336
336
335
334
335
337
336
334
334
335
337
335
332
333
336
339
336
335
334
337
337
336
335
335
337
338
337
335
335
337
337
337
335
335
338
340
337
336
336
337
338
338
337
337
338
339
338
336
336
339
340
339
337
337
339
341
338
335
336
338
339
338
336
337
340
340
339
337
337
339
340
338
336
337
339
341
340
337
337
340
341
340
338
337
340
341
340
338
339
341
342
341
338
338
341
342
340
338
340
342
343
343
339
339
340
341
341
339
338
340
341
341
338
339
340
342
341
339
339
341
342
341
338
339
341
342
344
343
344
345
347
346
345
345
347
347
346
344
344
348
349
345
342
343
345
347
345
341
339
340
341
340
338
339
342
342
342
338
337
340
341
340
338
338
340
344
347
352
363
376
386
394
398
397
387
370
349
328
315
309
308
310
312
318
325
331
332
332
335
338
339
338
335
335
338
341
339
338
340
342
343
342
340
341
342
343
341
340
340
343
345
343
340
341
345
348
347
344
345
346
347
346
344
344
346
349
350
348
349
350
352
349
347
346
345
345
343
342
342
344
344
339
336
338
340
340
336
332
333
335
337
336
334
336
336
336
335
334
335
337
337
336
334
335
337
338
336
335
335
336
337
335
334
335
337
338
337
335
335
338
338
336
335
336
337
338
337
334
335
337
339
338
337
337
338
339
338
337
336
338
339
338
335
337
339
340
338
336
338
339
339
337
337
337
340
340
338
336
337
339
340
338
337
338
339
340
339
337
337
340
341
339
339
339
341
341
339
337
338
340
341
339
337
338
340
340
340
339
339
340
341
340
337
339
341
341
339
337
338
341
342
340
338
339
341
342
340
338
339
340
341
340
339
340
342
342
341
342
344
346
345
343
341
342
344
345
344
341
342
348
349
345
341
341
343
344
343
341
339
339
339
339
338
338
339
339
337
336
337
340
340
338
336
338
340
342
344
349
360
372
383
389
396
399
394
378
356
333
318
311
306
305
309
316
324
329
331
331
336
339
339
336
334
337
340
339
336
336
340
344
344
342
340
341
343
343
341
339
340
343
343
341
339
340
343
345
345
345
346
346
346
344
343
343
346
349
349
347
348
350
351
349
348
347
347
344
341
341
343
345
344
339
336
337
339
340
335
331
332
335
336
335
333
335
337
337
335
332
334
337
337
335
333
334
337
337
334
334
335
337
338
337
336
337
339
339
337
335
337
339
339
337
335
335
338
339
337
336
337
340
340
337
335
336
338
338
337
337
338
340
340
338
336
338
339
340
339
337
337
339
339
338
336
337
339
339
338
337
338
340
340
339
338
339
340
341
339
337
338
341
340
339
338
339
341
341
339
338
339
341
341
340
339
340
341
343
341
339
340
342
342
339
338
340
342
343
341
339
340
342
342
339
337
339
341
342
340
338
339
342
342
341
340
340
341
342
343
343
346
347
346
344
343
345
346
347
345
344
345
348
350
346
342
343
345
345
344
342
342
341
340
339
339
339
341
341
339
338
339
341
341
339
338
340
341
342
344
349
358
370
380
389
395
400
396
384
362
341
325
314
308
305
307
315
324
329
332
332
336
338
338
336
335
337
339
339
337
336
339
344
344
342
341
342
344
344
343
342
342
344
343
342
341
343
344
345
346
345
346
347
347
345
343
344
347
349
350
349
350
352
352
350
349
349
348
344
342
341
345
346
346
341
338
339
342
342
339
335
335
337
337
335
334
336
338
338
336
335
336
339
338
336
335
336
338
338
336
335
337
338
339
336
335
336
338
338
337
336
338
340
339
337
335
338
341
339
336
335
337
340
339
337
336
337
339
339
337
336
338
340
340
338
336
337
339
339
337
336
337
340
340
338
337
339
341
341
339
338
339
341
340
338
338
339
342
341
338
337
338
340
340
339
337
339
341
341
338
336
338
340
340
338
338
339
342
341
339
338
340
342
341
340
337
340
340
341
339
338
340
342
342
340
340
340
342
341
339
339
341
343
343
