0
327
325
329
337
353
374
390
405
404
374
318
260
218
182
170
194
240
282
315
335
340
338
335
338
343
345
343
342
347
351
350
348
349
351
355
356
357
355
357
359
360
358
359
362
367
369
369
371
380
389
393
393
396
403
413
419
421
423
427
431
430
426
422
418
416
409
395
381
373
368
357
343
335
333
332
328
322
318
319
320
318
314
312
315
320
321
318
315
317
321
322
321
320
324
327
325
322
321
325
330
329
326
323
325
329
330
327
323
325
328
326
322
318
321
328
329
324
320
322
325
324
322
320
322
326
325
321
318
323
328
329
325
323
324
329
328
324
325
334
342
343
340
335
331
329
325
322
322
326
331
331
325
322
324
328
328
328
331
340
354
377
393
403
398
367
314
261
222
188
173
192
235
278
314
334
341
337
334
339
345
347
344
342
344
348
351
349
347
351
356
359
357
354
354
357
357
357
357
362
369
371
371
372
377
385
390
392
396
405
416
421
422
423
428
434
432
426
420
418
415
407
394
380
370
364
357
346
335
332
332
328
321
314
314
318
318
312
308
311
315
315
312
311
313
317
319
317
316
319
324
324
320
317
319
322
320
316
315
319
323
323
320
316
319
321
321
318
315
316
321
320
316
313
313
316
315
312
310
311
316
317
313
309
312
318
318
313
310
313
318
319
316
314
315
320
322
321
318
320
323
322
321
323
332
339
339
335
329
325
322
320
317
317
321
326
325
324
321
323
327
327
330
335
349
372
387
397
390
350
284
225
198
195
181
183
219
274
320
342
347
342
337
336
341
346
348
347
347
351
355
355
353
351
353
359
361
361
360
362
364
363
363
363
369
376
380
379
380
386
396
402
407
410
417
427
433
435
435
438
442
442
435
426
421
418
410
395
381
374
367
357
345
335
330
330
330
323
319
318
320
319
316
313
313
318
320
318
316
318
322
324
322
319
321
326
327
325
320
321
325
329
326
322
324
327
326
323
321
323
328
327
323
320
321
325
326
323
321
322
325
325
322
320
320
324
326
324
321
321
324
325
324
320
322
327
328
325
323
325
329
329
322
319
322
328
330
326
323
325
329
330
328
326
328
333
335
333
328
329
334
339
342
340
342
348
348
340
330
326
330
334
333
329
330
333
332
330
329
334
346
357
368
385
402
413
394
337
261
210
201
194
176
187
237
300
341
349
346
343
346
349
347
345
347
355
357
356
353
354
361
363
360
358
361
367
369
366
363
367
373
376
375
374
379
387
391
395
398
403
412
418
423
427
433
441
443
441
439
440
442
437
427
416
410
402
391
377
362
356
351
345
336
328
325
326
325
320
317
320
323
321
317
314
318
323
324
321
319
321
326
328
325
323
324
327
328
326
324
326
329
329
326
324
325
330
332
327
322
323
327
329
325
321
321
325
327
324
321
320
324
326
324
320
322
326
329
325
321
320
325
329
326
322
322
327
329
326
324
326
329
328
325
322
326
331
333
328
325
325
329
331
328
325
327
332
334
333
327
326
331
333
332
330
333
338
339
336
334
336
341
347
350
349
348
349
344
335
327
328
336
338
335
331
334
337
337
333
331
339
352
361
376
391
409
416
390
329
270
232
203
177
184
225
278
320
341
345
341
342
346
347
346
346
350
355
358
357
353
354
358
360
357
355
358
365
368
365
361
362
368
374
373
373
375
382
388
391
394
399
408
416
419
421
424
432
436
433
429
428
431
429
420
408
400
395
386
373
360
351
346
343
335
328
326
326
325
320
315
315
321
323
320
317
317
323
327
325
323
323
326
329
327
326
327
332
333
330
322
323
329
331
329
325
324
328
330
327
322
321
326
329
327
322
321
323
325
322
320
321
325
326
323
321
322
327
330
327
321
322
326
328
327
324
324
326
327
325
323
323
327
329
328
324
325
330
331
328
326
325
328
332
332
329
329
332
335
334
330
330
334
337
335
332
335
344
350
348
343
341
341
338
331
326
327
331
334
335
332
332
335
335
331
331
339
348
362
381
398
412
408
369
311
258
220
180
172
201
250
294
323
340
345
342
339
341
345
345
345
346
351
354
353
351
351
356
359
358
354
355
359
361
361
358
361
366
370
369
368
371
379
385
388
389
393
402
410
414
419
424
429
433
432
426
422
422
420
411
398
386
380
374
365
352
341
337
333
327
322
320
322
321
317
311
312
315
317
315
313
314
319
322
320
318
319
323
325
324
321
322
325
327
324
321
322
326
330
327
322
321
324
325
324
321
319
321
323
320
317
318
325
327
322
318
318
322
323
322
319
318
323
325
323
319
319
323
326
323
320
320
324
326
326
323
321
324
328
326
321
321
325
329
327
324
323
327
328
326
323
323
329
335
335
331
327
329
334
338
341
342
344
345
340
333
326
326
327
329
328
329
334
336
332
327
326
332
352
372
383
401
420
434
430
393
332
280
257
240
211
209
250
304
346
366
370
372
373
370
367
368
373
377
377
375
376
379
381
380
377
379
383
386
383
379
380
384
387
387
384
384
391
397
399
400
405
414
422
426
428
432
441
449
451
450
451
454
454
447
438
430
425
418
405
390
378
372
366
355
343
338
339
337
333
326
324
326
326
322
319
319
322
325
323
319
319
325
331
327
324
324
330
332
327
324
325
331
333
330
323
323
328
331
328
324
322
325
328
327
324
322
325
327
324
320
319
323
328
327
319
316
320
324
323
320
320
324
326
323
318
318
323
325
323
319
317
322
326
325
321
319
323
327
326
322
319
323
327
326
324
322
326
330
326
323
321
325
329
329
328
331
339
342
341
338
333
331
328
325
323
324
328
330
327
322
322
326
330
329
331
339
353
375
392
401
394
362
302
244
211
197
173
173
212
265
313
339
346
342
337
337
342
346
344
343
344
349
354
356
354
352
353
357
358
356
354
358
361
361
359
361
368
374
374
374
376
384
391
395
398
405
414
423
427
427
431
439
444
443
437
431
429
425
415
402
391
381
374
362
349
337
333
332
328
321
316
318
320
318
311
309
311
316
316
313
311
314
317
317
316
314
319
323
322
318
318
321
326
326
322
318
321
324
325
321
320
320
324
323
320
318
321
324
322
319
317
320
323
322
319
317
321
324
323
319
317
319
323
322
320
320
323
327
324
319
318
322
326
325
322
321
325
329
328
323
321
325
329
327
324
324
330
333
331
327
326
330
335
337
339
340
343
346
343
336
330
328
330
331
329
327
329
332
331
330
327
329
334
341
344
352
378
401
418
412
374
317
266
227
184
161
186
238
287
316
332
341
346
343
340
343
346
352
352
350
349
353
358
357
352
352
358
363
361
357
357
361
367
369
367
365
370
376
379
379
381
388
398
404
406
409
417
427
429
429
431
436
439
435
428
422
421
415
403
386
372
366
361
352
341
334
332
331
328
322
318
321
324
321
316
312
315
320
319
316
315
319
324
324
321
317
321
327
328
324
324
326
328
329
325
318
319
323
324
322
321
322
326
325
321
319
322
326
327
323
319
321
323
323
322
321
325
326
322
319
315
318
322
321
318
316
320
324
324
322
317
321
329
330
325
322
325
329
329
327
327
330
334
338
338
335
337
339
337
330
324
322
325
325
324
323
325
327
325
322
319
321
330
340
348
363
384
406
411
395
350
297
252
215
167
155
189
245
293
321
336
345
347
345
339
336
340
348
349
346
345
349
354
352
347
346
352
359
359
355
354
359
364
363
360
360
368
374
378
377
378
386
397
403
406
409
417
427
432
434
437
439
441
435
426
418
414
410
400
386
372
362
351
339
328
322
323
323
318
312
311
315
319
315
309
306
312
317
314
311
311
316
321
318
315
315
321
326
322
316
315
318
324
323
315
310
316
326
327
321
317
320
322
319
313
313
318
320
318
314
312
315
318
317
314
313
317
324
323
316
313
317
323
322
316
313
316
323
324
320
317
322
327
326
320
317
323
330
330
326
325
335
345
342
336
334
336
336
327
319
319
327
332
329
322
320
324
329
327
325
328
341
357
378
396
412
408
368
294
227
196
186
168
170
210
268
322
348
348
339
337
341
349
349
344
345
353
360
357
352
352
360
366
364
359
358
364
372
372
368
366
371
379
380
379
382
391
399
401
402
407
418
432
439
440
443
448
453
454
450
446
447
447
438
423
407
398
390
378
361
347
342
342
337
327
318
319
324
324
318
313
314
318
317
313
311
316
320
318
312
311
318
324
328
326
321
320
321
322
320
316
319
324
322
317
315
317
321
320
316
312
316
322
321
317
313
318
320
316
309
309
316
321
320
316
314
318
324
324
321
317
320
322
322
319
317
320
324
324
321
321
327
333
331
323
319
327
338
341
342
341
343
347
343
332
325
328
332
335
332
330
333
336
331
325
327
335
346
353
353
365
395
426
435
400
331
261
221
204
174
161
197
261
319
347
351
351
354
353
350
348
354
360
357
353
353
360
368
366
361
358
365
372
373
370
369
376
381
383
379
378
384
393
397
395
395
404
417
424
422
426
441
453
457
454
453
456
458
452
441
431
426
421
406
389
373
365
360
353
341
329
326
327
324
321
320
323
327
323
315
312
317
323
323
320
316
318
322
325
325
325
327
332
331
327
324
327
332
332
326
325
329
334
335
330
326
327
330
330
326
324
329
332
330
323
318
320
329
330
325
322
326
331
329
325
324
329
332
330
325
323
328
333
336
330
323
325
334
341
339
333
334
342
345
342
342
343
342
337
330
324
324
331
335
333
330
331
333
331
325
320
328
346
359
379
397
416
426
406
351
287
240
204
167
171
209
258
297
320
338
347
353
358
351
338
335
348
360
366
366
360
361
366
366
362
359
359
361
365
370
371
372
377
379
376
373
379
385
387
390
392
401
412
415
414
414
425
440
443
437
433
434
434
428
419
404
395
387
378
362
347
343
343
339
329
320
317
321
322
317
313
314
316
315
312
308
310
316
319
317
317
322
325
323
318
318
325
331
329
322
317
320
327
328
323
318
321
328
331
327
321
319
316
306
295
287
290
297
304
315
325
338
345
334
329
330
332
335
335
329
325
326
332
337
338
333
332
334
328
320
312
310
313
312
305
299
302
317
332
332
321
321
336
345
346
360
381
405
411
385
334
283
240
188
146
157
203
257
295
317
336
346
349
346
338
334
337
342
344
341
338
339
345
348
345
341
344
351
355
352
349
355
362
366
363
358
361
369
375
374
376
386
398
403
404
404
414
423
427
427
423
421
422
420
411
399
391
388
378
363
348
340
338
334
324
316
314
317
315
309
302
305
312
315
314
310
311
314
315
314
313
315
317
316
315
315
320
326
324
319
315
319
326
325
320
311
311
317
321
321
320
320
322
322
319
316
317
323
323
317
310
310
318
326
327
320
319
324
327
321
315
318
332
341
338
329
324
326
324
319
315
319
325
324
317
312
317
326
329
326
323
332
343
350
363
378
396
400
367
304
248
216
189
167
174
216
273
323
343
339
326
321
331
342
345
341
343
349
350
346
343
348
358
358
351
345
351
360
361
357
354
359
370
372
369
367
373
383
388
389
389
395
409
421
420
415
420
433
441
441
436
432
431
427
410
399
390
380
366
351
340
338
337
328
314
303
301
307
314
312
304
302
298
294
296
308
327
338
336
325
317
318
327
333
326
315
313
319
324
323
321
321
325
328
321
313
314
318
321
320
316
316
321
325
320
314
310
314
317
315
310
310
314
316
313
314
321
331
336
335
331
329
333
332
323
314
313
320
324
320
314
313
319
322
319
315
318
327
337
341
346
370
400
420
411
361
299
262
226
174
146
176
240
296
327
331
325
324
332
333
328
335
341
344
348
342
343
353
354
346
343
349
356
357
357
363
363
354
348
354
364
375
385
388
382
380
387
402
414
413
409
409
423
435
435
428
427
429
430
425
411
399
392
383
367
354
352
348
341
329
319
316
319
318
313
308
309
314
316
310
303
304
314
320
319
315
310
312
317
321
322
319
321
322
316
313
317
323
326
321
315
318
327
331
328
320
318
321
326
323
317
315
323
326
323
319
319
326
331
327
320
319
325
330
330
329
335
342
343
338
331
327
327
327
321
316
318
325
329
327
322
323
327
330
330
331
335
355
381
401
412
405
372
327
276
222
173
174
211
258
298
324
337
341
337
335
338
344
348
346
340
343
351
356
354
349
348
351
352
351
352
356
364
366
362
359
363
370
372
371
373
380
389
396
398
398
403
414
420
421
419
422
428
430
424
418
416
412
406
395
384
377
370
360
351
341
337
339
336
331
326
325
323
321
317
319
320
326
324
317
314
325
337
342
338
334
336
340
341
335
331
335
341
343
338
332
330
336
341
335
324
322
330
336
335
334
334
338
341
338
334
334
337
341
333
327
329
338
348
352
350
353
355
350
336
324
324
332
339
336
331
332
339
343
340
333
333
343
353
369
393
416
435
423
376
318
273
241
199
184
209
261
312
344
356
357
356
361
364
360
353
358
373
385
388
386
387
387
382
377
375
377
385
388
387
385
385
392
394
388
384
392
409
425
430
422
419
430
442
446
443
443
448
451
449
446
447
450
449
435
417
402
394
389
383
365
350
348
349
348
342
337
339
339
336
333
333
336
335
329
326
330
338
338
334
329
331
340
349
345
338
334
333
337
339
340
339
340
342
337
334
335
342
346
340
329
323
327
330
331
331
333
336
337
334
329
329
330
328
328
329
336
346
351
349
345
342
341
336
329
327
330
336
338
332
323
322
331
339
334
325
327
339
356
379
398
407
389
332
261
207
182
159
158
190
242
295
334
348
343
335
334
344
347
342
337
340
351
356
352
349
349
355
359
355
349
348
355
362
363
362
364
371
373
370
368
375
389
395
394
394
401
413
423
425
426
432
440
438
428
420
419
422
417
401
384
373
368
362
346
332
324
324
324
316
307
304
308
311
308
301
298
303
307
306
302
304
310
314
310
304
305
313
319
317
312
310
315
317
313
308
308
314
318
312
306
306
312
316
310
304
302
309
312
308
303
303
309
313
313
308
308
313
312
310
307
308
310
315
316
315
317
322
326
325
323
320
320
317
314
308
309
314
317
312
307
309
316
320
319
320
329
350
374
390
390
359
297
224
172
154
140
140
175
231
286
323
337
336
329
324
329
337
341
340
338
340
346
348
346
342
345
352
356
356
355
356
360
362
359
357
363
370
379
378
376
379
391
402
407
407
414
425
434
434
431
432
440
443
438
429
421
418
413
397
378
365
360
355
344
330
323
320
318
314
307
304
308
312
309
306
305
312
316
313
308
308
315
320
318
312
311
316
318
316
313
315
321
322
317
312
313
315
316
312
310
311
317
321
320
315
310
311
314
312
308
307
314
318
315
311
313
321
322
316
310
310
315
321
320
317
313
316
323
324
324
330
341
345
342
331
322
320
322
320
316
314
320
325
322
317
315
318
323
328
333
344
374
402
416
405
360
293
233
192
159
143
167
224
279
316
333
341
344
339
332
330
337
346
347
344
345
350
355
353
348
350
358
363
361
356
355
361
365
364
362
367
375
382
382
378
380
394
410
419
422
426
429
433
432
429
430
436
440
433
423
416
413
409
397
381
368
362
357
346
334
329
330
331
324
312
308
313
320
320
316
316
321
325
322
317
316
322
326
324
318
320
327
332
329
321
319
323
328
326
322
319
323
327
327
324
321
321
324
322
318
317
320
323
321
315
313
320
326
324
320
319
324
327
324
318
317
323
329
328
323
323
329
334
330
325
329
341
349
348
337
326
326
329
327
321
320
326
330
328
322
320
326
332
337
337
346
373
398
413
405
369
316
263
215
165
147
179
235
279
307
327
340
343
339
338
340
347
353
351
346
347
353
358
357
353
351
358
364
363
360
359
363
368
370
368
366
372
379
381
382
386
397
407
408
407
413
425
435
436
430
427
431
433
428
418
410
409
407
398
382
369
362
356
346
333
326
329
331
327
320
317
320
322
319
317
317
322
325
324
320
317
320
325
325
324
323
327
331
327
322
320
326
332
329
322
320
324
328
325
320
316
318
321
321
318
317
321
324
322
317
316
322
325
323
318
316
322
326
325
321
319
325
331
329
323
322
329
336
332
328
331
339
345
342
331
323
320
322
322
318
318
323
325
323
320
320
323
329
335
339
351
377
400
414
398
350
291
239
205
168
154
185
240
286
315
330
341
346
343
339
339
344
350
349
347
350
359
363
357
350
349
355
360
360
357
356
362
371
373
368
365
373
384
386
383
387
396
407
415
417
419
427
436
440
437
436
437
438
434
424
416
413
409
396
378
365
356
352
345
333
324
323
325
321
315
312
315
319
317
312
313
319
324
321
317
317
323
329
328
320
318
325
330
328
321
319
323
328
327
320
317
320
325
324
319
316
321
326
324
320
314
319
322
321
317
316
321
324
321
318
319
322
325
322
317
317
322
327
325
323
323
329
335
335
335
336
340
344
340
328
320
322
326
328
325
320
323
328
328
324
320
325
334
342
346
358
384
409
416
393
340
284
237
202
159
153
192
256
304
328
337
342
346
343
340
342
347
352
351
349
347
352
359
359
355
352
357
363
365
362
360
364
369
369
368
368
377
388
388
384
385
394
404
410
413
421
431
439
438
432
430
434
437
433
422
413
410
406
393
375
361
356
354
346
336
330
329
329
324
316
313
318
321
319
316
317
323
329
327
322
318
325
331
331
325
321
326
331
330
326
323
326
330
330
327
323
324
328
329
325
321
321
325
322
318
320
326
330
327
322
320
323
328
328
322
319
325
332
331
325
323
328
336
334
329
331
338
343
341
333
327
326
326
326
324
322
327
331
329
324
321
326
330
331
335
339
355
381
399
409
394
352
298
246
206
162
157
192
244
287
319
339
345
340
335
334
341
349
349
345
344
350
358
358
352
350
355
360
359
354
353
360
368
369
365
365
370
376
377
378
380
389
399
405
406
410
420
430
431
427
426
430
436
432
422
415
411
406
395
381
368
363
359
348
336
329
329
329
324
317
311
312
315
316
313
311
316
322
320
315
315
321
328
327
320
314
319
326
327
321
318
322
327
325
318
317
321
326
325
319
316
321
324
321
315
311
314
322
322
317
313
316
321
322
316
313
319
324
324
319
317
321
326
326
322
321
327
332
334
332
329
333
338
334
324
316
318
324
324
320
317
321
325
324
320
316
322
334
342
347
360
383
404
405
368
300
241
205
183
157
161
206
267
315
335
336
335
337
340
340
341
345
350
352
351
348
351
357
358
355
352
354
361
363
362
361
365
371
372
368
368
376
385
388
390
390
397
408
418
420
421
430
439
440
437
435
435
437
432
421
409
403
397
386
370
358
353
350
340
330
322
320
322
321
314
309
312
318
318
313
311
315
321
321
319
318
322
327
324
320
319
321
326
324
319
317
320
324
324
320
317
320
325
326
320
314
316
323
325
318
313
315
321
321
317
315
319
322
321
316
312
314
318
318
316
315
319
326
326
322
320
322
327
328
329
331
336
341
340
334
326
326
326
323
320
319
323
326
323
321
321
325
328
329
334
344
364
390
407
407
377
314
240
188
171
158
155
188
244
298
332
346
350
346
339
337
343
351
354
351
349
352
359
362
359
357
360
367
369
365
361
364
370
371
370
371
379
386
388
386
387
396
408
414
416
420
429
441
444
442
442
446
448
445
437
430
425
421
410
393
378
368
363
353
339
329
329
332
327
316
311
312
319
317
313
311
314
318
321
320
318
321
324
322
317
317
322
327
326
321
318
322
329
327
321
315
317
323
323
318
315
317
323
322
316
312
315
321
321
317
314
318
322
323
318
313
316
322
322
317
313
315
320
321
319
317
321
327
329
328
330
336
341
340
333
325
323
324
321
318
317
321
327
327
322
319
322
326
326
329
340
358
386
408
416
394
336
260
196
164
141
136
169
232
294
331
344
347
345
339
336
339
347
350
348
348
352
358
358
356
352
357
365
370
366
359
360
368
371
369
366
373
382
388
389
390
395
407
415
419
423
430
439
447
450
448
451
455
454
445
433
427
424
414
397
381
370
363
354
343
331
328
329
326
319
312
315
320
321
317
312
314
321
321
316
313
318
325
327
322
318
321
326
328
324
319
320
326
328
323
318
319
325
328
322
316
317
322
324
321
318
320
326
324
318
315
318
324
325
320
316
319
323
324
320
319
323
328
327
322
320
325
332
335
330
327
333
342
344
341
336
331
328
323
317
316
323
332
333
327
321
321
327
330
331
336
349
377
404
427
431
398
328
257
197
151
126
150
210
272
319
343
350
346
338
335
340
349
351
349
344
346
352
356
355
355
358
363
364
359
356
361
370
373
369
366
369
376
380
383
385
394
403
409
411
414
422
434
440
439
437
438
440
441
435
426
421
421
414
399
383
374
369
360
347
335
332
333
329
320
316
316
321
321
318
316
319
325
327
323
321
323
328
328
325
321
324
328
329
323
319
320
325
326
323
319
322
329
330
324
318
319
322
323
319
317
320
324
324
321
317
317
321
323
324
322
323
328
329
327
323
326
335
340
338
335
334
333
328
323
316
320
327
327
323
319
322
327
326
322
322
332
344
357
379
401
423
425
387
321
255
206
154
139
168
223
280
321
338
339
334
335
342
347
343
339
341
350
354
350
347
351
361
363
356
350
354
362
366
365
360
362
368
372
371
370
374
384
391
395
399
408
419
423
422
422
429
437
441
437
430
424
419
412
401
391
385
382
371
354
342
336
337
332
323
315
317
322
320
314
310
315
322
325
321
317
320
326
330
324
321
321
325
326
323
323
325
328
329
324
319
320
325
328
324
318
318
323
326
322
316
317
323
324
319
317
322
328
329
324
318
322
329
334
336
337
341
345
339
324
313
316
324
325
322
319
320
326
328
323
317
321
334
344
348
364
388
414
420
388
327
266
219
174
135
150
204
266
308
328
334
336
338
340
339
339
341
347
350
348
346
347
351
354
354
352
353
359
361
356
354
358
370
371
365
363
370
381
388
391
392
399
407
416
417
415
420
429
436
434
429
429
431
427
416
403
394
388
379
363
349
345
346
342
331
321
317
320
320
315
312
313
318
319
315
313
316
323
325
321
318
323
328
328
322
317
319
325
325
320
315
315
318
321
320
318
321
325
326
319
312
314
320
322
317
313
313
318
322
320
318
321
329
333
332
330
331
335
335
327
319
315
317
320
316
315
318
326
326
318
312
314
324
335
341
352
378
405
422
404
342
270
221
184
145
141
179
243
297
325
334
337
340
342
340
338
341
349
351
345
341
343
350
354
353
351
353
360
362
360
357
360
367
370
368
368
372
381
388
386
387
395
406
411
410
414
424
436
440
438
430
427
428
427
418
406
396
390
382
369
356
349
347
340
328
320
319
322
322
318
312
311
316
321
318
316
318
322
325
323
321
324
327
327
322
320
322
328
331
328
323
321
324
326
325
321
322
327
326
322
320
321
324
324
320
318
322
328
329
324
322
326
332
335
334
336
340
344
341
331
320
318
324
326
322
319
319
323
327
327
326
322
328
338
344
356
382
409
424
406
349
286
241
201
157
153
194
257
308
332
335
333
337
342
341
339
343
349
352
350
347
350
356
361
358
353
351
354
358
358
356
357
366
373
373
371
372
380
386
388
387
394
408
418
418
419
422
431
435
429
423
422
426
423
414
403
395
389
380
366
354
347
346
341
331
322
318
324
326
319
312
310
316
320
318
315
314
318
322
321
320
321
327
330
324
319
321
327
330
325
320
321
327
330
326
320
320
325
328
325
320
321
325
325
319
314
317
325
326
320
318
319
324
327
325
322
323
331
338
339
336
337
339
336
325
317
318
324
327
324
318
320
326
328
324
317
317
330
344
355
370
387
404
393
340
271
222
199
173
163
184
236
293
331
341
336
334
340
346
342
337
339
346
350
348
347
348
353
357
355
353
356
363
367
362
358
360
367
373
374
373
377
386
391
392
394
404
416
422
420
418
425
435
441
437
429
425
428
425
415
399
388
383
374
361
346
338
338
337
329
320
318
320
322
317
312
310
316
320
319
315
316
322
326
323
318
319
327
331
328
323
323
327
330
327
321
319
325
329
327
323
323
327
328
325
318
317
324
328
326
322
319
320
321
319
318
317
320
323
320
315
317
322
325
324
322
325
329
332
329
326
333
344
347
340
331
328
328
326
321
317
319
327
329
327
324
322
326
328
330
336
345
363
387
403
407
389
338
275
223
195
169
166
196
244
291
324
342
346
341
337
338
343
345
346
343
346
352
356
354
353
356
361
362
357
353
356
365
370
369
364
365
372
378
378
377
383
392
400
404
407
416
427
432
433
431
432
436
439
436
427
419
415
408
394
380
371
367
360
348
336
331
332
331
325
317
315
319
321
318
313
315
323
326
320
314
314
323
329
326
321
320
326
332
331
325
323
325
327
324
322
324
330
333
330
323
321
327
331
327
319
318
323
328
326
321
321
328
330
327
321
319
323
328
326
322
322
325
330
327
322
320
324
329
326
323
323
329
332
328
326
327
331
335
334
331
334
342
349
349
343
339
336
329
321
318
321
330
335
334
331
329
330
331
332
336
344
361
386
401
408
396
358
302
247
207
171
165
197
246
289
321
340
349
346
341
339
342
346
346
346
349
356
359
356
351
352
359
364
361
356
358
365
369
367
364
365
372
378
378
375
378
388
398
401
399
404
414
426
430
430
429
435
438
432
423
416
416
412
401
386
374
369
366
356
341
333
334
333
328
321
318
320
322
318
314
314
320
325
323
319
319
325
329
325
320
322
329
331
329
321
321
329
332
328
325
324
328
330
329
325
325
329
330
325
320
321
324
326
322
315
313
320
325
324
319
316
322
327
324
318
318
323
327
325
320
320
324
329
328
323
321
325
327
324
322
322
326
330
328
323
321
328
331
328
323
323
328
331
330
327
328
335
338
333
325
325
336
348
350
343
341
344
343
337
328
325
329
331
329
327
328
332
338
334
331
337
349
363
380
393
407
403
361
290
231
204
188
176
187
229
283
328
351
351
344
341
347
352
350
347
349
356
358
354
350
351
359
366
363
359
358
362
367
369
367
366
372
377
375
373
377
385
391
393
395
402
412
422
427
428
428
432
437
436
433
431
432
430
421
405
394
388
382
369
355
346
343
340
333
323
318
320
325
322
316
313
318
323
321
317
316
322
326
322
317
318
324
329
328
322
321
326
331
328
322
321
326
331
328
323
322
325
328
325
320
319
326
329
323
317
316
322
325
322
318
317
321
327
325
318
314
319
326
327
324
319
321
323
321
319
319
325
327
323
318
317
325
332
332
325
322
327
330
327
323
324
328
331
328
324
324
328
331
330
326
326
333
339
337
332
328
333
342
347
345
345
349
348
338
325
322
328
335
335
329
328
333
338
333
325
327
342
358
372
388
406
414
387
318
239
194
193
184
172
193
247
310
349
355
346
340
344
351
352
348
348
354
360
362
358
356
361
366
366
361
359
364
368
368
366
368
373
379
377
373
376
386
395
397
398
402
413
424
428
429
434
443
448
446
440
440
445
442
432
419
409
401
393
378
361
349
345
343
334
324
319
320
323
321
317
313
317
322
319
314
311
314
318
319
316
313
319
325
324
319
318
323
327
326
321
320
325
329
325
319
317
323
327
322
318
318
324
327
323
316
313
319
327
324
318
316
320
325
324
320
318
323
325
322
318
316
321
327
324
318
317
321
325
323
319
318
323
326
324
319
318
323
329
330
325
323
326
330
329
326
323
328
332
329
325
325
330
331
329
325
326
332
337
336
332
329
335
345
350
346
343
345
343
335
326
324
329
334
333
327
325
331
337
334
327
330
343
363
386
401
414
412
369
284
203
170
172
162
165
207
271
329
353
351
341
337
344
354
355
351
349
352
356
357
356
356
361
366
366
364
366
370
373
370
366
366
374
383
385
383
385
392
402
405
406
412
423
434
439
438
442
451
460
462
456
449
449
447
436
423
412
404
395
382
368
356
350
344
335
325
321
322
326
323
318
315
318
321
320
318
317
321
324
320
316
316
323
329
327
323
321
325
330
328
322
321
328
331
326
321
318
322
327
325
319
315
319
326
325
319
317
322
326
323
317
315
319
325
323
319
317
322
328
325
321
318
323
328
325
319
316
320
327
327
322
318
321
326
326
324
322
329
334
329
321
318
324
330
330
327
326
329
333
330
328
329
334
337
336
333
336
344
350
349
344
339
337
336
331
326
325
331
337
334
328
325
329
333
335
341
350
369
396
419
434
421
370
303
244
193
143
141
185
247
295
324
340
348
347
340
337
342
350
352
349
347
353
359
358
353
350
354
360
360
358
358
363
369
371
367
365
371
378
380
378
379
387
397
402
406
409
418
427
430
430
433
439
445
441
432
425
422
420
411
396
383
377
373
361
350
340
335
333
327
322
320
321
323
319
313
311
316
320
319
316
316
321
328
328
324
320
322
326
325
324
322
327
331
329
323
320
321
326
325
321
320
324
328
327
319
314
317
324
325
320
315
319
326
324
318
315
319
326
326
319
316
321
326
326
322
319
322
326
324
322
321
327
333
331
326
324
328
334
338
338
338
341
344
338
330
323
323
327
327
321
322
329
333
331
325
324
329
336
339
342
356
383
409
421
402
352
296
245
201
153
151
196
257
300
322
334
343
346
345
340
339
346
353
354
351
350
355
358
357
353
353
356
363
364
360
358
364
370
370
367
367
373
382
385
386
389
397
404
408
409
414
424
435
437
434
432
438
442
438
427
415
409
406
398
381
365
358
356
346
334
324
324
328
326
319
313
315
322
322
316
311
314
319
321
320
319
321
325
324
320
317
321
326
326
323
320
323
328
327
321
318
321
327
326
320
315
318
324
325
320
316
321
325
322
317
315
319
326
326
319
316
322
328
327
322
319
324
334
338
337
333
333
338
337
328
319
319
324
327
326
321
324
330
329
323
317
318
328
338
341
352
378
404
420
402
347
284
235
200
157
147
184
242
292
322
334
340
342
341
337
336
343
350
351
347
346
353
360
358
351
348
353
360
361
358
355
362
368
368
365
364
369
379
383
384
386
396
406
413
415
414
423
436
441
438
435
438
441
437
427
416
409
405
395
378
361
354
351
341
329
320
319
321
319
314
310
312
317
316
311
309
312
316
316
313
312
320
325
323
316
313
315
321
323
320
318
321
326
326
320
316
318
324
325
320
314
317
324
326
320
315
316
321
321
316
314
320
325
325
319
317
322
329
333
332
330
333
339
337
327
314
312
318
322
320
317
318
324
324
318
313
315
323
333
340
351
376
400
415
402
345
270
215
181
152
136
164
228
292
331
340
338
337
336
336
336
340
346
347
343
343
347
353
354
352
352
356
362
361
357
355
360
369
370
366
364
370
380
387
387
388
395
405
414
417
419
426
438
444
444
440
440
443
438
428
416
409
405
396
380
361
352
349
345
333
322
319
322
322
318
314
315
318
317
313
309
313
322
323
318
313
316
321
323
320
321
324
326
325
320
318
321
326
324
318
315
319
327
328
321
316
318
323
323
317
314
318
324
324
320
315
319
325
325
321
320
326
336
339
333
331
334
335
328
316
309
313
321
325
323
317
319
324
324
318
316
328
347
367
386
403
417
402
336
248
187
163
148
148
180
238
299
339
349
344
338
339
345
347
343
341
347
356
358
352
347
351
359
363
359
357
360
367
370
368
366
371
377
378
374
375
383
396
403
405
408
416
426
433
435
435
440
448
450
444
435
432
431
425
412
397
386
377
367
353
342
336
336
331
323
316
316
324
322
316
311
314
321
323
318
315
319
324
324
320
318
321
326
327
324
320
323
328
330
325
320
320
327
329
326
321
322
325
326
321
318
319
323
325
320
315
316
323
327
325
319
318
323
325
323
322
325
331
332
328
326
329
339
345
343
337
335
335
329
320
315
317
324
328
327
322
322
327
327
324
326
334
348
368
389
407
423
415
362
293
238
195
155
156
194
250
301
334
346
342
334
336
344
347
341
336
341
350
353
351
350
352
359
360
356
353
358
365
367
363
359
362
372
375
373
372
379
389
392
392
396
404
416
425
427
425
427
433
436
434
428
424
424
420
406
391
382
377
368
354
341
336
338
335
326
319
318
323
324
320
315
316
321
326
325
321
321
327
330
327
321
321
328
332
330
325
324
329
333
330
326
327
329
326
321
320
325
332
333
324
317
319
327
330
326
321
322
329
331
325
319
319
326
329
324
318
321
328
330
325
321
323
331
335
332
327
330
335
339
341
341
344
348
346
336
324
321
327
329
326
323
325
333
336
330
326
330
341
348
349
367
393
420
426
395
336
278
234
187
150
162
213
274
318
335
338
340
345
347
344
341
347
353
355
351
346
348
355
359
356
353
354
359
362
362
359
359
364
368
368
368
374
384
389
389
389
395
405
413
417
418
423
432
438
435
427
425
429
428
420
409
403
397
386
371
359
352
351
345
334
323
321
324
325
319
313
314
321
325
321
315
315
320
326
325
322
323
329
332
331
327
325
325
326
324
323
326
331
332
326
321
322
326
328
325
320
321
323
325
323
320
321
327
331
328
321
321
326
331
328
323
323
328
332
329
324
325
331
336
335
331
330
334
337
333
331
334
339
340
337
339
343
350
354
349
339
332
331
332
330
328
332
336
337
332
326
327
335
341
345
348
362
389
413
418
391
336
280
233
197
157
160
204
264
309
331
340
345
347
344
340
342
349
354
353
350
351
358
359
357
353
353
360
366
364
360
361
368
372
370
368
371
378
383
384
384
388
399
409
412
414
419
429
438
439
434
433
439
443
437
424
415
413
408
396
377
362
355
351
341
331
324
324
324
320
314
312
316
320
317
313
313
317
318
315
311
314
321
325
321
317
320
327
330
325
321
324
330
330
325
319
320
328
332
327
322
320
323
325
322
318
316
320
322
319
316
318
323
325
322
317
316
321
323
321
319
320
321
324
320
315
315
323
327
325
320
320
326
329
324
318
317
322
327
325
323
324
329
329
321
316
319
330
336
333
326
327
333
337
338
337
339
345
348
343
333
324
324
327
326
323
323
328
334
333
327
327
334
342
348
355
373
397
417
404
353
281
221
194
182
162
170
219
280
324
338
340
345
349
346
341
343
351
356
353
350
352
360
363
361
355
353
359
366
365
361
362
369
374
373
369
371
379
386
388
389
392
403
413
416
416
422
432
442
442
440
442
447
449
441
431
423
418
410
394
378
365
360
354
343
332
325
327
327
321
314
310
314
317
316
312
312
317
320
316
312
313
318
324
322
316
315
321
327
324
319
318
323
326
324
321
321
325
329
326
319
317
322
327
323
318
316
320
324
322
318
316
320
323
320
316
317
323
327
322
316
316
321
324
321
318
317
323
328
324
318
318
323
327
326
316
314
322
328
328
323
320
325
328
326
325
323
325
328
326
323
324
328
330
327
323
323
329
334
331
325
325
332
338
336
331
329
331
336
342
346
347
350
350
340
329
325
330
335
333
327
328
334
337
333
328
327
339
355
368
387
404
421
409
349
267
204
187
181
161
169
221
292
344
355
345
336
338
349
353
350
350
356
361
361
358
355
359
365
364
361
362
369
373
371
368
368
375
381
380
377
380
390
400
401
400
405
416
427
431
432
436
446
457
457
452
449
451
451
443
432
422
420
410
389
369
357
355
354
344
333
327
328
328
323
318
316
319
321
319
316
315
320
324
323
319
316
319
326
324
321
322
327
331
329
325
321
324
329
327
322
320
324
329
326
320
319
324
328
325
320
317
322
328
328
323
319
320
322
321
320
320
324
327
324
320
317
323
328
326
321
320
323
327
327
323
323
328
331
329
325
321
325
330
329
325
326
330
332
330
326
325
330
336
334
327
325
331
336
335
328
325
332
337
333
327
325
331
338
338
336
335
340
343
343
342
343
349
352
349
339
331
333
336
335
333
332
336
341
339
332
328
335
347
354
360
380
406
430
430
393
328
269
228
190
154
161
213
277
322
340
343
346
348
346
343
346
352
360
356
352
350
357
366
366
361
358
363
369
369
368
372
378
383
382
378
375
382
392
397
396
396
406
417
422
424
426
436
444
447
446
445
447
450
446
436
427
423
420
411
395
380
372
368
357
344
333
333
336
331
322
318
320
325
323
317
314
319
325
325
321
318
322
328
329
324
323
330
336
332
324
321
326
332
332
329
325
328
332
330
325
324
327
330
326
320
319
328
332
328
320
315
319
325
325
322
321
326
330
327
321
318
322
329
328
321
317
322
328
328
323
320
325
331
329
324
321
326
333
333
326
320
322
328
329
326
326
332
335
331
327
325
330
338
338
337
341
346
349
345
335
327
327
330
328
325
323
330
335
334
329
327
330
336
341
343
346
369
397
417
421
398
350
295
239
187
142
155
209
267
304
324
338
348
345
337
337
345
353
351
346
342
347
357
360
354
349
351
357
357
356
355
359
365
367
365
366
372
377
377
375
376
385
395
400
402
407
420
432
431
429
428
434
442
441
432
425
423
418
407
392
378
371
364
357
345
333
329
329
325
316
312
314
320
319
314
311
314
317
315
310
310
317
325
326
322
318
321
325
326
322
317
322
328
326
322
319
323
328
327
320
317
321
327
326
320
316
320
325
327
322
317
319
323
323
318
314
318
325
326
323
316
318
325
325
323
319
320
325
325
321
318
323
330
330
326
322
324
331
332
328
325
329
339
344
342
337
342
345
338
327
320
322
327
329
328
325
328
332
331
327
325
333
345
350
361
382
406
421
400
343
275
228
203
167
156
184
242
299
332
340
338
340
347
348
345
341
346
355
355
351
349
353
359
361
358
356
360
362
362
359
361
366
373
373
370
371
378
387
390
389
393
403
413
420
424
428
438
446
448
445
442
445
448
442
429
415
408
404
392
375
358
351
346
338
327
322
322
325
321
314
310
312
318
319
314
309
312
318
319
315
310
310
315
318
318
317
323
329
329
321
317
322
328
326
319
317
323
329
328
322
317
317
321
321
317
316
319
324
324
319
316
319
323
323
317
313
316
324
324
320
316
319
326
329
322
316
319
324
326
323
320
324
330
332
330
331
336
341
341
334
324
323
326
327
322
319
326
332
331
324
320
322
328
331
335
341
357
384
406
415
394
340
268
209
184
166
154
176
230
289
328
345
347
343
338
338
344
352
354
348
344
351
360
361
358
355
355
362
366
362
359
362
370
372
367
363
369
380
387
387
385
390
402
408
410
415
426
438
445
445
441
446
454
455
449
440
435
431
419
401
385
375
370
358
343
332
330
332
328
317
309
309
316
316
311
307
311
316
316
311
308
311
319
321
315
312
316
323
324
317
314
317
324
326
321
316
316
321
322
318
314
317
324
323
320
315
318
322
320
316
314
317
321
321
318
314
315
318
318
315
313
317
322
321
317
313
317
325
325
321
318
321
326
328
328
329
337
342
342
336
327
326
326
324
320
315
319
325
325
322
319
320
325
327
330
339
355
380
400
409
405
363
290
218
178
162
145
159
209
271
323
349
354
350
341
337
345
353
358
356
353
354
359
362
362
359
361
368
367
363
362
369
378
383
378
372
372
379
384
385
386
389
398
408
420
433
446
453
455
451
452
457
465
466
460
450
446
442
432
415
396
384
377
368
351
334
328
330
330
323
313
313
318
321
318
310
308
314
320
322
319
321
328
328
321
317
320
327
329
322
315
313
319
322
321
320
323
330
330
323
320
324
327
325
321
318
322
329
328
324
319
319
326
328
323
316
320
325
326
320
315
319
325
325
323
321
323
329
325
320
318
323
332
336
332
329
333
340
342
337
335
335
338
334
324
315
318
328
332
330
326
327
333
332
322
314
318
337
353
372
394
419
439
426
368
296
240
200
156
151
185
244
301
337
346
339
339
345
349
347
341
342
351
356
353
347
348
355
357
356
358
366
372
368
360
357
364
373
377
374
372
376
387
394
393
391
400
414
423
424
424
431
441
446
443
437
436
438
436
425
414
404
395
385
371
357
351
351
345
332
320
319
325
325
319
312
313
319
321
318
312
314
322
325
322
321
323
328
330
328
324
320
323
326
324
321
322
328
330
327
321
321
327
327
322
319
324
329
329
325
319
318
321
322
320
315
317
324
327
323
320
320
326
329
324
319
320
328
331
331
331
339
345
342
338
334
329
329
328
325
320
319
325
327
325
322
323
328
330
328
331
342
359
383
401
418
416
384
327
264
207
154
145
183
235
281
315
335
340
336
334
337
345
350
347
344
347
354
355
350
346
350
358
363
360
357
359
363
363
361
360
365
375
381
377
375
381
392
401
403
403
407
420
429
431
430
434
441
444
440
433
429
426
416
400
386
378
371
361
346
334
330
331
329
320
314
315
320
320
311
307
313
322
323
318
312
313
319
323
321
317
318
323
327
326
321
319
323
323
320
317
318
324
325
320
315
314
319
322
321
314
312
318
320
317
312
313
316
316
312
313
318
324
322
317
314
315
320
321
318
315
316
324
330
332
331
332
337
334
323
312
309
315
319
316
311
312
319
322
319
312
312
318
328
335
342
363
389
408
398
352
292
242
205
159
134
159
218
275
311
324
329
333
333
329
328
331
337
340
338
334
338
345
346
343
339
341
348
352
349
345
347
354
361
361
357
358
364
371
375
376
382
393
405
408
407
414
424
429
428
427
431
432
428
418
406
400
397
388
372
356
346
344
339
325
312
307
311
315
311
303
301
304
308
305
300
300
307
312
311
305
307
313
317
315
310
309
317
325
322
315
312
318
320
316
312
310
317
320
318
312
311
316
319
317
313
313
317
319
314
306
312
324
324
318
314
313
311
311
316
321
326
332
329
324
320
322
334
339
339
336
329
324
320
316
316
324
325
318
314
312
316
321
325
327
326
328
340
359
383
399
415
416
380
318
257
212
171
158
184
239
291
327
342
341
336
339
345
346
340
334
339
350
358
358
352
345
353
367
376
371
363
359
361
360
360
370
384
388
376
364
367
380
391
399
402
409
430
446
445
430
419
426
445
461
458
451
442
420
399
395
404
411
394
360
334
325
334
341
341
336
324
318
320
325
330
336
341
337
328
324
333
344
338
325
315
320
335
343
339
328
315
314
324
336
343
346
346
340
334
334
337
341
337
328
325
329
334
337
333
327
325
331
337
338
330
324
326
329
327
326
328
335
336
330
325
324
331
335
332
330
333
339
341
340
340
343
348
349
341
329
324
328
332
331
327
327
332
335
333
328
326
332
338
342
345
362
389
413
419
396
345
288
240
201
159
157
200
260
304
326
335
341
345
344
339
339
345
351
350
347
347
355
361
357
350
351
359
364
358
355
356
364
369
368
365
366
373
381
384
382
385
394
403
407
410
415
426
436
437
433
435
439
438
430
420
414
410
405
391
374
362
357
351
339
328
322
324
325
321
313
310
316
320
319
315
313
314
317
315
311
312
320
326
321
317
319
320
318
313
307
310
326
340
341
331
322
325
329
328
323
321
323
326
324
319
318
323
327
323
316
315
321
329
330
325
322
323
323
319
316
317
323
329
326
320
317
321
327
328
324
321
324
329
327
322
320
325
331
330
326
325
332
338
335
332
336
346
351
347
339
332
332
332
329
326
326
330
336
333
327
325
331
336
336
337
344
362
386
404
414
398
352
287
228
199
174
163
188
239
290
326
344
351
347
339
337
347
354
353
348
347
352
357
357
352
351
358
365
367
364
361
365
370
371
367
366
371
379
380
378
381
390
401
405
404
407
417
428
434
437
440
446
450
445
437
432
430
427
416
399
384
376
370
358
343
330
327
330
326
318
314
317
320
319
314
312
317
322
319
315
313
318
324
324
320
320
324
328
327
321
317
321
330
331
326
323
325
328
325
321
320
326
330
327
322
319
323
328
326
321
319
323
328
326
317
313
317
324
324
320
319
322
325
323
319
319
325
328
326
322
319
322
328
327
322
319
324
327
326
322
321
326
332
333
329
326
329
333
333
327
324
327
333
333
330
328
333
338
337
336
340
349
354
353
343
332
327
329
330
329
331
336
337
336
329
325
330
339
349
354
364
386
412
418
385
318
245
199
194
184
165
187
243
303
339
349
351
351
348
346
347
352
357
356
352
353
359
364
365
360
360
365
369
367
363
363
371
376
375
372
373
381
391
391
386
388
400
414
419
419
423
432
443
447
445
445
449
455
452
443
434
429
423
412
396
380
372
367
356
342
331
328
328
326
320
318
319
322
321
316
315
318
322
322
318
315
317
322
322
318
316
321
328
327
320
317
321
331
332
327
326
327
328
325
320
319
326
330
326
317
315
322
329
328
321
317
320
325
325
320
317
321
327
325
320
316
321
326
326
322
319
322
328
330
325
320
322
329
330
326
322
325
328
328
324
321
325
331
330
326
324
328
332
331
326
324
328
334
334
330
327
330
337
338
333
330
334
341
342
337
336
343
352
353
348
341
338
335
330
326
324
329
338
340
334
330
331
337
342
346
353
375
405
424
425
390
323
252
204
190
168
164
200
256
310
340
354
358
357
350
346
350
357
359
355
353
362
366
365
361
360
367
372
375
369
363
367
372
372
373
377
382
387
389
390
394
402
411
418
419
423
434
446
448
447
450
457
464
463
455
444
439
435
427
411
399
392
383
369
351
340
339
341
336
327
320
322
324
322
316
313
318
324
323
316
313
315
320
319
318
317
322
330
330
325
321
323
329
328
322
319
323
330
329
323
319
322
327
326
321
317
321
327
325
319
316
319
324
323
318
317
321
326
325
320
320
323
324
321
318
318
324
329
329
325
322
323
327
327
329
329
327
325
323
321
322
327
331
329
324
322
328
331
330
327
325
330
339
341
337
333
337
348
351
346
340
339
339
333
326
325
328
332
332
328
325
329
334
336
331
330
338
350
365
387
408
425
415
366
300
243
207
167
158
187
242
294
329
341
342
341
344
350
350
348
345
350
354
353
352
352
358
364
364
359
356
362
368
368
364
363
368
374
375
371
371
381
391
394
392
392
402
415
421
424
426
435
446
444
438
433
434
440
438
427
410
399
391
381
368
355
350
348
341
331
322
322
325
324
320
318
321
322
319
316
312
312
317
319
317
315
318
323
326
325
322
324
329
328
321
313
316
327
335
331
323
324
330
329
326
321
316
312
307
303
308
317
324
332
337
334
334
335
332
325
321
323
329
329
325
320
322
328
329
322
318
325
332
331
328
327
330
333
336
339
340
339
340
342
338
330
329
330
328
326
326
328
331
331
328
325
327
332
336
340
340
353
380
401
414
406
373
324
269
224
171
149
181
236
285
313
332
343
346
344
340
342
350
353
352
347
348
352
355
357
355
358
362
363
361
357
357
363
368
367
364
368
374
378
378
379
385
394
397
400
407
418
427
429
428
427
436
443
445
439
428
422
416
409
396
382
372
368
361
347
334
327
327
328
320
314
315
319
317
313
309
311
317
320
318
312
314
319
321
318
315
320
326
325
320
319
324
326
324
318
314
316
321
324
323
319
320
324
324
321
317
318
323
323
320
318
320
322
322
317
314
315
318
322
322
319
320
326
330
327
325
327
338
346
337
329
326
328
327
323
317
317
324
327
324
320
322
327
328
325
321
329
342
353
369
386
403
407
376
314
255
217
190
164
172
214
270
318
344
344
336
333
342
348
346
341
343
350
355
354
351
350
355
357
356
354
354
360
366
364
359
359
366
372
373
372
374
381
388
391
394
399
409
419
423
425
430
436
438
437
434
432
429
426
417
406
393
384
374
361
347
341
339
334
326
320
319
321
319
316
311
310
314
316
314
311
313
320
324
320
316
317
322
325
323
318
318
323
325
323
320
321
325
326
323
320
322
326
325
322
317
317
321
323
320
317
318
322
323
320
317
318
322
322
320
318
320
326
329
328
327
332
337
338
335
330
324
322
320
318
316
319
324
326
324
321
319
323
325
327
334
344
364
386
401
402
377
321
259
213
191
170
171
207
258
306
333
344
345
340
335
338
345
348
347
344
346
351
355
354
352
353
359
361
359
356
358
365
369
368
366
368
374
377
379
380
385
393
401
407
410
416
427
435
438
437
436
440
443
438
431
427
423
415
401
387
377
369
361
350
339
332
331
328
322
316
315
318
320
317
313
313
318
320
317
315
316
321
325
322
319
321
325
325
324
323
322
324
325
323
321
322
324
326
324
322
324
326
326
323
321
323
326
325
322
319
319
325
327
325
322
324
330
337
340
336
338
339
335
324
315
315
320
325
324
320
319
323
325
323
320
321
332
345
356
376
397
418
416
367
289
230
195
170
152
168
219
281
327
342
340
337
341
344
342
338
339
345
349
349
349
351
356
357
356
353
353
359
363
361
359
362
367
370
372
372
375
381
386
389
392
398
408
417
420
424
431
437
442
442
439
435
434
432
424
413
401
393
384
371
356
347
342
337
330
324
321
321
320
319
314
313
315
317
315
314
316
319
322
321
318
318
324
327
324
321
321
325
329
326
321
321
325
326
323
321
321
324
326
323
318
317
321
323
322
319
319
322
324
322
319
317
321
325
324
321
321
326
329
328
327
331
340
342
339
333
327
327
328
322
318
320
324
326
323
319
320
324
324
323
325
335
349
373
396
416
421
390
319
252
208
180
157
167
211
267
315
342
347
342
337
337
344
349
349
346
344
350
354
354
351
352
357
362
362
358
358
363
367
366
363
366
372
377
379
378
384
390
400
403
404
409
419
430
436
435
435
440
444
440
434
430
426
421
411
399
388
379
371
359
346
338
336
335
327
320
317
320
324
324
319
318
321
324
324
321
321
326
329
328
325
325
332
334
331
327
325
328
330
328
325
325
330
331
327
323
325
331
332
328
323
322
324
327
325
323
323
326
329
327
325
326
329
333
331
327
328
334
336
334
331
334
342
346
345
341
338
336
332
326
321
321
330
332
332
329
330
331
332
332
331
337
346
360
382
403
424
427
394
339
281
231
178
160
189
242
290
323
341
345
342
343
347
351
349
348
348
353
358
359
356
353
356
360
360
358
360
366
371
371
367
366
371
377
379
377
378
386
393
396
397
401
413
420
424
423
427
433
435
432
427
426
428
424
415
402
391
383
375
363
351
343
342
340
334
326
321
323
326
325
321
320
324
326
326
325
327
331
333
331
327
326
331
335
334
328
328
333
333
331
328
328
332
334
331
327
326
329
331
329
324
323
327
330
330
325
323
326
330
329
325
326
331
338
336
333
331
337
344
343
337
334
333
332
328
322
323
328
333
332
328
326
328
332
331
328
332
342
350
365
384
405
417
403
358
304
253
206
164
171
211
263
303
327
337
337
335
339
343
344
343
345
347
349
350
349
350
353
356
356
354
355
360
364
361
357
357
362
368
370
369
370
377
384
387
387
393
402
412
415
414
417
424
429
427
421
418
416
414
406
394
384
377
369
358
346
338
335
331
326
317
313
313
316
313
311
311
315
317
315
313
313
318
322
322
317
317
321
325
322
318
316
321
324
323
319
316
319
322
320
316
314
317
319
317
313
312
316
317
314
310
310
313
318
317
313
312
316
320
320
316
316
321
329
331
329
327
326
322
314
307
307
314
318
317
312
311
314
318
317
315
316
328
340
352
366
380
394
385
337
275
226
201
170
158
180
232
285
321
331
328
325
330
334
332
329
331
337
342
341
337
337
342
345
344
343
346
351
353
352
352
352
356
359
360
360
363
371
378
383
384
387
397
408
413
414
416
422
427
427
423
419
419
416
409
396
385
378
370
356
341
332
330
328
324
317
312
311
312
309
306
305
309
313
312
308
308
313
317
316
313
314
319
323
321
316
314
319
323
322
318
318
322
323
322
316
315
319
323
320
317
319
323
323
320
315
314
317
322
321
317
314
319
324
324
320
321
324
326
324
322
324
336
342
340
336
331
328
324
320
317
318
323
327
324
321
319
324
327
328
327
334
345
365
384
397
400
374
315
249
205
189
172
170
201
253
305
337
348
346
339
337
343
347
346
346
348
353
356
352
349
350
356
359
359
358
358
364
367
366
364
366
372
377
380
379
382
390
397
402
408
413
420
428
432
434
438
444
446
442
435
431
429
425
412
397
385
377
369
359
346
336
334
332
328
322
317
317
319
320
319
315
314
317
319
318
317
321
325
324
321
320
324
328
330
328
324
326
329
328
324
323
326
330
328
324
323
324
327
327
322
319
322
327
326
322
320
322
327
326
322
320
323
326
324
322
324
327
328
325
322
321
324
330
331
325
321
325
330
332
329
328
331
335
335
335
339
343
347
344
337
329
326
328
327
325
325
328
332
331
326
324
329
336
346
354
370
394
416
421
389
321
249
207
196
172
162
196
257
315
343
347
344
345
344
344
346
351
353
353
352
353
358
363
363
360
358
361
366
367
366
365
369
374
375
373
375
381
388
392
392
396
404
413
419
423
426
434
442
444
444
444
445
445
439
430
421
417
412
401
384
370
362
355
348
339
331
330
330
326
321
319
321
321
320
317
317
321
325
324
321
321
325
330
329
326
325
327
328
328
327
327
330
332
329
324
324
328
330
327
326
324
326
328
328
324
321
325
327
326
324
323
325
327
328
325
323
326
330
329
325
323
325
330
328
324
325
328
333
332
328
325
328
333
333
330
328
330
332
332
331
330
335
340
341
337
336
346
352
351
346
343
342
339
334
330
329
334
337
337
334
332
334
337
336
337
342
351
373
396
414
424
413
372
313
255
207
161
168
210
264
306
333
348
350
345
343
348
353
353
351
351
356
362
363
360
358
361
365
367
365
363
366
371
372
369
369
375
381
383
382
381
386
393
397
400
405
415
422
424
425
426
432
434
431
426
422
423
421
416
404
391
383
377
367
357
349
343
340
336
331
326
327
327
324
321
320
324
326
325
326
325
329
333
332
329
327
331
335
334
331
330
333
336
335
331
329
332
336
337
332
329
329
333
332
330
327
328
331
329
327
325
329
332
329
325
323
325
328
328
327
325
327
330
330
327
325
328
333
333
331
330
332
336
334
331
332
337
344
347
345
342
343
344
339
329
325
329
334
333
329
327
330
334
333
329
329
337
346
351
365
383
403
415
396
347
293
248
209
170
176
217
270
309
330
338
339
342
346
347
346
345
348
352
354
354
351
351
355
357
357
356
358
363
364
361
360
366
370
371
370
371
375
381
385
386
389
397
407
412
415
417
423
430
430
427
424
425
426
422
412
402
394
385
372
359
349
343
339
334
326
321
320
321
319
313
311
312
316
317
313
311
314
318
320
320
318
320
323
324
322
319
320
324
324
322
319
321
326
325
320
314
317
321
322
317
314
317
320
321
318
315
317
320
321
317
314
316
321
322
318
314
316
320
321
319
316
317
321
321
318
316
321
326
327
323
320
325
334
339
337
333
334
335
331
321
316
319
324
326
322
319
321
325
325
320
320
327
337
345
356
374
395
406
383
324
260
220
207
182
168
192
248
306
337
343
337
335
340
341
338
337
342
347
347
346
346
351
355
355
354
353
357
361
360
357
356
361
368
369
369
369
374
382
386
387
391
399
409
414
416
418
426
436
436
435
432
433
432
429
418
406
398
391
380
365
351
344
342
337
327
318
316
317
318
314
311
312
315
313
310
308
311
316
317
314
314
317
322
324
322
319
320
323
322
318
315
318
323
325
322
318
320
322
323
319
317
319
323
321
319
318
321
325
324
320
317
319
321
321
318
317
319
323
324
321
317
318
324
327
325
322
324
327
328
326
324
328
335
341
340
337
338
340
336
326
319
320
326
329
328
326
327
329
329
325
323
328
340
352
365
383
404
417
397
336
261
212
202
187
168
186
239
301
339
345
340
338
343
345
345
345
348
354
355
352
350
355
360
362
360
357
361
367
370
369
366
367
372
374
374
375
380
388
394
396
398
405
415
421
424
427
433
442
447
445
442
443
445
440
430
417
407
401
391
376
360
350
347
339
331
323
323
325
323
318
313
313
318
319
316
313
315
320
322
319
317
319
323
325
323
321
322
325
326
323
321
323
328
328
324
320
323
327
327
324
321
322
328
325
321
319
321
324
323
320
318
318
323
325
323
321
323
328
329
325
320
321
326
328
327
322
323
327
328
325
323
327
332
330
327
326
329
335
337
334
331
334
340
348
350
346
345
346
343
336
326
327
332
333
331
329
331
337
337
334
332
335
346
357
371
391
414
431
415
361
293
242
211
174
166
200
256
309
342
351
347
345
348
351
351
351
355
361
363
361
358
359
364
366
364
361
363
368
371
368
367
369
375
378
378
377
381
389
394
397
399
406
416
420
425
428
435
441
443
442
441
443
444
440
429
416
409
404
393
380
367
358
356
349
340
333
330
330
330
327
323
322
324
325
324
324
326
328
328
326
324
328
334
334
332
329
331
333
335
334
330
332
336
336
332
328
328
330
331
330
328
331
333
332
328
325
327
331
333
329
325
327
332
334
333
330
329
333
333
331
327
328
331
333
333
331
331
334
336
338
335
334
337
339
338
334
336
346
353
354
351
348
346
342
336
333
333
337
338
337
336
337
341
342
337
334
339
350
359
375
392
411
422
404
353
298
252
212
175
183
225
278
319
339
345
345
346
352
357
356
352
352
357
360
361
358
360
364
366
365
363
365
372
370
367
365
367
373
377
377
375
379
386
391
392
393
400
411
418
419
421
426
432
434
433
430
428
429
425
415
405
399
393
384
370
356
349
347
342
335
327
325
327
328
324
319
317
319
322
321
319
320
324
327
324
322
323
327
329
326
324
326
329
330
329
326
325
327
327
325
322
323
327
328
326
321
320
323
325
323
319
319
323
325
322
316
316
319
321
319
315
317
322
324
322
319
321
324
325
323
322
329
338
341
337
330
327
326
323
318
315
317
322
326
324
320
319
323
324
321
323
332
344
364
379
392
396
377
327
273
230
194
166
175
216
263
304
331
338
332
329
330
336
339
338
336
338
343
346
344
342
345
349
350
348
346
349
354
357
356
353
355
361
364
364
363
367
375
382
387
390
396
406
413
416
416
419
425
428
425
419
414
414
409
396
382
373
365
355
342
330
324
322
320
315
309
308
311
310
307
304
306
309
310
307
305
306
311
313
312
310
313
318
320
317
312
311
316
320
319
315
315
317
319
318
314
314
318
318
316
314
313
315
316
315
312
312
315
318
317
314
311
314
316
316
313
313
318
321
319
315
315
318
320
320
320
321
327
334
334
330
331
333
331
322
314
314
319
321
320
317
318
323
324
321
318
322
333
345
358
373
389
402
386
332
266
222
212
193
173
188
238
297
334
342
337
334
337
341
340
338
339
346
350
351
348
348
353
356
355
353
355
360
363
363
359
358
363
368
372
372
374
380
386
388
391
396
408
416
419
421
427
434
439
438
434
433
432
429
422
410
399
392
383
369
354
345
342
337
327
319
317
319
319
315
311
311
316
318
315
310
311
316
320
319
317
318
321
325
323
320
321
325
327
324
319
320
326
329
326
322
321
324
326
324
322
321
323
323
322
318
317
322
324
322
318
318
322
324
322
318
316
321
325
324
322
322
325
325
324
321
321
325
329
327
326
327
331
335
337
338
341
343
344
339
333
328
326
327
328
327
328
329
333
329
327
328
331
334
341
350
369
393
411
414
383
321
258
216
202
175
164
198
258
314
341
347
346
347
344
343
344
350
354
352
349
351
357
361
361
358
358
365
369
367
363
362
367
372
373
372
374
380
387
389
390
394
402
411
417
420
426
435
443
445
444
446
449
449
444
435
427
421
413
401
386
372
362
356
346
335
331
332
330
324
319
317
321
321
319
317
316
320
323
323
324
325
328
331
331
326
326
331
333
329
325
326
330
333
332
327
324
327
330
329
325
324
327
329
328
325
323
326
329
329
325
325
328
331
330
326
325
330
332
330
327
328
332
334
330
327
326
329
332
331
329
329
334
334
331
328
330
334
337
335
331
332
337
340
340
336
335
341
348
352
351
348
349
348
341
334
330
335
339
338
334
333
338
339
337
334
336
346
354
360
378
399
423
427
400
343
285
240
194
163
180
231
286
327
341
343
341
345
350
351
349
349
354
360
360
357
357
362
366
364
362
361
366
369
368
367
368
371
375
374
373
375
382
389
391
391
395
403
412
417
418
422
429
435
437
436
433
434
435
431
419
411
405
399
387
371
360
356
351
344
335
330
331
329
325
320
318
322
326
325
323
321
326
330
330
329
326
328
332
333
331
329
333
336
334
329
327
331
335
334
331
329
332
333
332
329
329
329
330
328
325
325
328
331
328
324
325
327
331
328
323
324
329
331
329
325
324
328
332
329
326
325
329
333
331
326
327
332
335
333
330
330
333
336
336
336
339
347
349
345
337
331
330
330
329
325
325
328
331
331
330
328
330
333
334
336
340
352
376
394
409
407
380
332
278
234
185
161
187
237
282
314
337
348
345
339
339
342
348
350
350
348
351
356
358
354
353
355
359
360
358
358
362
365
365
364
366
369
372
372
371
374
382
391
395
396
400
408
416
420
422
424
427
429
429
422
417
416
411
401
388
376
368
361
352
341
333
332
330
323
316
313
313
315
314
309
308
311
317
317
314
312
314
317
318
315
316
321
324
324
321
319
323
326
324
319
318
322
324
323
319
316
319
323
322
318
316
318
320
318
315
314
317
321
320
316
314
316
319
319
317
316
319
321
319
314
314
319
323
321
317
316
319
322
321
318
319
322
326
326
322
321
324
325
327
330
333
337
339
338
330
323
322
324
324
323
322
325
326
324
320
320
323
327
331
337
347
368
389
403
397
362
302
246
213
195
170
174
216
270
314
337
343
343
340
337
337
340
346
347
344
343
348
353
354
353
352
355
359
360
358
357
359
362
362
361
362
368
374
377
376
378
387
396
401
403
408
419
430
433
432
433
437
441
438
432
426
422
416
404
390
376
370
364
352
337
328
326
327
324
318
313
314
316
315
311
310
313
316
316
313
313
316
320
320
319
319
321
325
325
321
320
323
324
323
320
320
324
326
324
323
322
323
325
325
321
319
321
324
324
320
318
321
323
322
319
317
320
324
323
320
318
322
326
325
321
319
322
325
325
322
321
324
328
327
322
320
323
328
328
327
326
328
330
331
328
327
331
339
343
341
340
343
344
339
330
322
326
331
331
329
327
329
333
332
329
326
331
343
353
366
386
410
423
403
342
266
215
202
185
168
187
241
303
342
350
345
342
345
347
348
348
352
356
357
355
354
359
363
364
363
361
364
369
370
368
366
370
375
377
376
375
381
388
391
392
397
407
416
420
423
428
436
446
449
447
446
448
450
445
433
423
416
409
397
381
366
356
351
345
334
326
325
326
323
317
314
315
318
318
316
315
318
322
321
318
319
322
325
326
323
321
323
327
328
325
322
325
330
330
324
321
325
330
329
324
321
325
329
329
327
324
325
328
327
324
322
324
327
328
325
324
326
328
326
323
321
325
329
328
326
323
325
329
329
325
324
326
329
330
329
327
329
333
333
331
330
332
333
333
330
329
333
339
339
335
334
339
343
342
340
344
350
355
353
345
339
336
337
336
335
334
335
340
338
336
332
334
337
339
344
350
366
394
416
429
420
384
328
273
230
184
166
195
250
298
328
345
352
351
347
345
351
357
359
358
357
359
362
363
362
360
362
365
367
367
364
366
370
371
369
372
376
381
382
381
383
389
397
402
404
407
414
424
429
431
433
438
443
443
437
430
427
426
418
403
389
382
377
366
354
345
340
338
333
327
321
320
324
325
322
320
319
322
323
324
324
325
327
328
328
327
328
331
330
328
327
330
334
334
331
328
330
334
332
327
326
330
335
334
328
323
326
329
328
325
324
325
330
330
325
322
324
328
329
328
325
326
329
330
328
323
325
331
331
327
324
326
329
330
328
327
331
337
337
334
332
335
342
346
343
339
342
343
339
331
325
327
334
334
333
329
330
333
332
328
328
335
345
351
366
385
408
418
395
343
288
245
206
168
177
219
271
312
333
340
339
340
345
345
343
341
344
349
351
351
350
351
355
355
353
352
355
360
362
358
355
359
364
366
364
364
370
376
379
381
384
392
403
409
410
412
419
426
430
429
426
428
429
423
413
399
390
383
373
361
349
342
338
331
323
316
315
316
314
311
307
307
311
312
311
307
308
312
313
310
308
312
317
318
318
315
317
321
321
317
315
318
323
322
317
314
317
321
322
318
315
317
320
321
316
313
314
318
320
317
313
311
315
316
315
314
316
319
319
317
314
315
320
320
318
318
320
321
320
317
316
322
326
324
321
320
323
330
332
331
333
335
340
341
334
326
323
322
323
323
323
324
326
325
324
321
323
327
332
338
345
365
389
407
408
378
320
264
224
201
170
165
202
259
309
335
345
344
341
339
339
344
350
353
351
349
351
357
359
356
353
356
360
364
363
360
361
367
370
369
367
370
376
380
380
382
387
397
404
408
413
421
432
440
440
440
442
445
445
440
433
428
423
413
398
383
373
363
354
344
335
331
329
324
319
315
315
317
317
313
309
311
315
318
315
313
316
320
322
320
319
322
326
326
324
321
322
324
326
325
321
321
324
325
322
319
319
326
326
323
320
321
325
326
323
320
319
322
325
322
318
319
322
323
321
319
320
322
322
320
316
320
324
326
323
321
323
328
328
325
324
325
329
331
329
330
338
343
343
341
338
334
332
328
324
321
325
330
333
329
324
325
329
331
330
334
345
362
388
408
418
404
357
286
225
195
177
163
179
226
285
331
351
351
344
339
342
349
353
351
349
352
357
358
356
355
359
364
365
362
360
364
370
371
369
368
373
379
382
381
382
387
395
402
406
410
417
427
435
437
439
445
452
454
451
445
441
438
430
417
403
393
383
370
356
343
336
334
330
324
318
316
318
318
315
312
312
314
314
312
311
315
318
319
318
315
317
321
323
322
319
321
325
326
324
321
322
327
327
324
321
320
323
325
324
323
324
326
324
321
320
322
326
326
322
319
320
323
325
323
322
323
326
326
325
323
324
328
329
326
322
324
328
328
326
325
326
329
329
328
326
326
332
336
334
331
333
339
346
345
341
341
343
339
331
325
325
330
333
332
329
329
332
334
332
329
333
344
354
369
389
413
428
415
364
299
245
209
167
161
193
251
303
337
347
345
341
343
344
345
346
349
354
356
356
354
356
361
364
363
361
362
367
370
368
363
365
371
377
376
373
376
384
391
394
396
403
411
417
420
424
431
440
443
443
441
442
442
439
430
421
412
405
395
383
368
357
351
346
338
330
327
329
327
322
319
321
325
325
322
317
318
324
326
326
324
325
329
331
330
328
328
332
334
331
329
331
334
335
332
329
330
331
333
331
326
328
331
332
328
324
325
329
331
327
326
326
329
331
329
325
327
331
333
331
328
327
329
330
330
327
328
332
335
333
330
331
334
338
336
336
342
348
350
348
343
338
336
333
330
327
327
333
335
332
330
330
332
333
334
338
344
360
385
402
417
415
382
327
269
224
179
166
193
242
287
321
341
347
344
340
342
347
351
350
348
351
356
358
356
354
355
359
361
360
358
360
365
369
369
366
366
371
375
376
377
380
387
396
398
398
405
415
423
423
424
430
437
440
437
433
429
426
420
406
392
381
372
364
353
343
337
334
329
323
317
315
317
318
317
314
312
314
315
315
314
317
322
323
319
315
316
322
327
325
322
321
323
326
323
321
321
325
327
325
323
324
326
324
320
315
313
318
320
319
315
315
317
319
317
314
315
318
321
319
315
314
316
319
318
314
314
319
322
321
318
316
319
321
319
315
315
320
324
323
323
324
332
336
334
331
330
329
325
318
312
314
320
324
322
318
317
320
323
321
319
326
340
356
378
395
405
389
335
265
213
196
176
162
183
233
292
334
346
340
332
332
338
342
343
341
340
346
350
350
348
347
352
357
356
354
356
361
362
362
361
363
369
372
372
373
376
384
391
395
397
402
412
421
428
431
435
441
445
446
442
438
436
430
421
409
396
386
375
361
347
337
333
331
324
316
313
316
316
313
308
308
311
313
311
308
308
312
316
316
314
313
316
318
320
318
317
319
322
321
319
318
320
322
323
320
319
321
321
320
316
317
320
322
321
316
314
316
318
318
318
316
318
320
319
316
316
319
319
320
317
317
320
322
321
319
320
324
326
323
318
318
322
328
325
320
319
324
327
327
324
323
328
331
332
330
329
336
343
344
342
341
341
337
328
323
324
329
330
327
325
325
328
330
327
325
332
346
364
386
405
418
409
362
283
213
184
177
160
167
213
279
333
351
348
340
339
345
351
351
350
350
354
358
359
356
355
360
363
363
362
364
369
372
371
370
370
374
378
379
381
386
393
399
402
405
411
422
429
433
435
440
449
457
457
452
448
448
443
435
424
412
403
391
377
363
351
345
341
335
327
323
323
323
320
316
315
317
318
317
314
313
318
322
321
319
318
322
325
324
323
322
327
328
326
324
325
329
331
329
325
324
326
328
327
323
322
324
326
325
322
320
324
326
324
322
319
323
327
325
321
321
324
327
325
322
322
325
327
327
323
320
324
328
328
324
322
328
332
330
324
324
329
333
333
331
329
332
334
332
330
331
334
336
336
335
333
335
339
339
337
340
350
356
355
350
343
339
335
332
331
333
338
343
339
335
333
337
340
338
340
346
359
385
411
431
435
409
352
295
243
188
154
176
229
283
322
343
350
349
345
345
351
357
355
353
353
357
363
363
360
361
365
369
368
366
365
368
371
370
366
368
373
378
380
382
384
390
398
401
402
407
416
424
429
431
434
439
444
444
439
435
434
429
420
408
398
391
383
371
358
347
343
342
337
329
325
325
325
324
320
319
321
324
324
322
322
326
331
331
327
325
329
331
331
328
327
330
332
333
330
328
329
333
332
329
329
330
330
329
325
324
327
331
329
324
322
326
329
329
326
323
325
327
326
325
325
326
327
326
324
325
329
332
331
326
324
327
331
330
327
325
329
334
333
330
326
330
336
335
332
330
333
337
337
337
341
346
348
346
339
332
329
330
328
328
329
332
333
332
329
327
330
334
337
341
347
364
388
406
417
405
366
311
257
212
163
158
195
250
294
322
338
346
346
342
341
343
348
349
348
347
351
356
356
354
353
356
360
360
357
356
361
366
367
364
363
368
374
376
378
380
384
389
393
398
404
413
422
427
429
431
435
438
435
430
425
423
419
409
396
382
372
365
354
343
333
329
327
323
318
314
314
315
312
311
308
310
315
315
313
310
313
315
314
314
314
317
321
322
318
315
318
322
322
318
315
318
321
321
316
314
319
321
319
315
313
316
318
316
312
311
313
318
318
315
311
315
316
315
312
312
315
319
318
315
313
317
320
319
316
315
318
321
321
317
317
320
323
323
320
318
321
325
325
325
328
334
340
339
337
335
332
328
323
319
319
323
326
325
323
321
325
328
327
324
329
341
359
380
397
409
400
356
284
223
195
179
166
178
222
279
325
344
345
338
336
341
345
347
344
343
347
352
354
352
352
356
361
361
359
358
361
366
367
366
366
371
375
375
375
378
384
393
397
400
404
413
423
429
434
437
443
449
450
446
442
440
437
429
418
405
395
387
374
356
342
337
334
329
322
317
316
318
316
310
308
309
313
312
310
309
313
317
316
315
315
318
321
321
318
317
320
323
324
321
319
320
323
324
322
320
321
323
323
320
318
320
324
324
321
318
318
322
323
320
317
319
322
324
320
318
319
323
324
321
318
320
325
326
323
320
323
327
327
322
320
323
327
326
325
324
328
332
333
330
327
333
342
345
343
341
341
340
334
326
322
325
330
332
331
330
332
334
333
329
328
338
350
362
382
403
423
421
381
311
245
207
181
161
176
223
282
328
347
348
343
343
348
350
351
350
352
356
358
357
356
360
365
367
364
363
366
371
372
369
368
371
377
380
381
382
386
392
397
401
404
411
420
428
432
435
443
452
456
453
450
450
451
445
435
424
416
409
396
379
365
356
353
348
339
331
328
328
327
324
320
320
324
325
325
322
323
326
327
326
325
328
331
331
327
327
332
336
335
330
327
329
334
335
331
327
326
329
331
330
328
329
330
330
326
325
328
332
331
327
325
327
330
329
326
325
327
331
331
328
326
328
332
333
332
331
332
333
333
330
329
334
341
348
348
343
343
344
341
334
328
329
334
335
335
331
332
335
335
332
329
332
341
348
355
374
397
421
425
396
342
290
246
194
161
179
231
285
321
338
343
345
348
350
349
347
349
354
357
356
355
358
362
363
359
358
360
365
367
364
362
366
370
373
371
371
376
383
386
388
390
398
408
413
416
420
426
434
438
438
436
437
438
435
427
418
411
404
394
379
365
356
351
345
338
330
328
327
325
321
318
317
319
320
318
318
319
323
324
321
319
323
327
328
326
323
325
329
330
328
325
326
330
330
327
323
323
327
327
324
321
322
325
327
323
319
321
326
327
323
319
321
325
326
322
320
320
323
323
321
319
322
327
327
325
322
324
330
337
339
338
338
338
335
327
321
322
327
328
322
320
321
326
327
325
322
324
331
338
341
352
375
396
410
399
351
297
253
218
172
160
194
249
296
323
333
336
338
339
337
335
339
345
347
345
343
348
351
353
351
349
350
354
356
355
352
354
357
359
359
361
365
371
376
377
378
385
394
400
404
407
413
422
428
429
428
428
430
428
421
411
404
397
386
372
358
348
343
336
326
317
314
315
314
311
305
304
306
306
304
303
306
308
308
307
305
305
310
314
313
310
310
315
318
318
312
312
315
315
312
309
312
317
316
312
308
310
314
314
311
307
308
311
312
310
308
308
312
313
311
308
308
310
312
309
307
308
312
314
312
310
310
314
315
313
312
315
323
328
328
324
323
325
320
312
305
306
312
315
316
312
312
315
315
313
310
314
328
341
354
369
387
398
377
316
249
209
199
176
158
178
233
296
331
335
327
323
328
332
332
331
333
338
342
339
337
340
346
348
347
342
343
348
351
352
351
353
357
359
360
362
366
373
379
382
384
390
401
408
412
415
422
431
434
432
430
429
429
426
417
406
398
389
378
363
348
337
333
327
319
310
309
312
311
305
300
301
305
306
303
302
303
307
307
307
307
307
312
313
311
309
311
316
319
317
312
313
317
317
314
312
314
317
318
315
312
312
316
319
316
312
313
316
316
314
310
311
316
318
316
312
314
317
317
315
312
313
318
320
318
315
317
320
320
318
315
316
321
324
323
321
323
329
330
327
328
335
339
340
337
330
325
322
322
321
320
321
326
328
325
319
319
324
329
334
343
361
389
411
421
403
349
271
209
186
170
154
172
226
290
333
348
349
345
342
340
343
348
351
352
351
354
358
360
358
357
359
364
366
365
362
366
371
374
373
372
376
383
389
390
390
396
405
414
418
421
429
441
448
449
450
454
461
460
455
447
441
434
426
414
399
386
377
366
354
342
337
334
331
325
319
317
319
319
317
314
315
320
321
318
315
316
322
325
324
324
323
327
329
328
324
325
330
332
328
323
324
328
329
327
324
326
330
332
326
322
322
325
326
323
321
322
326
326
322
320
322
327
331
327
323
322
327
329
327
322
323
328
328
325
324
325
329
331
329
327
329
334
334
330
326
328
332
334
331
329
329
333
335
333
330
332
336
340
339
334
334
338
342
348
351
355
356
353
346
337
333
335
338
336
334
336
339
340
337
334
335
344
356
368
392
420
446
444
394
311
236
196
171
147
159
214
285
340
358
354
348
350
355
358
358
358
362
365
364
362
363
369
372
371
369
371
376
378
376
374
377
384
388
389
387
389
397
402
404
407
413
422
430
434
439
446
455
461
462
459
460
463
459
451
442
434
427
417
402
386
374
365
359
350
340
335
335
334
329
324
322
323
325
322
320
321
325
328
326
324
326
331
332
330
328
328
333
334
332
328
329
333
336
334
329
328
330
332
330
327
326
329
330
330
327
326
327
327
326
324
323
327
327
325
322
323
328
330
328
323
324
328
329
327
324
323
327
329
326
322
323
328
331
329
326
326
330
331
329
326
326
330
333
331
329
330
335
338
336
336
341
348
350
348
342
336
331
330
329
327
327
331
334
332
328
328
332
335
336
338
345
369
400
426
435
417
371
311
250
190
143
156
207
264
305
329
341
345
343
339
340
346
348
347
345
347
353
357
355
353
353
356
358
359
358
359
363
366
365
364
367
372
376
378
377
380
387
395
399
401
407
416
423
427
428
429
435
437
434
432
428
425
419
409
392
381
374
365
354
342
334
331
329
325
317
314
316
316
314
310
311
315
317
316
314
315
319
323
321
319
318
323
325
323
320
320
323
325
323
320
320
322
324
322
320
320
322
324
319
316
317
320
320
319
317
318
321
321
318
314
316
321
322
320
317
316
319
320
320
319
320
324
328
325
321
321
328
334
337
335
335
338
336
325
316
314
320
324
322
320
318
322
325
322
318
319
327
338
344
360
381
405
416
394
340
284
240
198
151
154
196
256
304
327
332
334
338
340
336
334
339
345
346
344
343
345
351
350
348
347
351
355
356
353
352
357
364
366
363
363
370
379
380
377
379
388
399
405
408
413
421
430
434
433
433
436
438
432
422
414
409
402
390
375
361
352
347
337
326
316
317
319
316
311
307
308
311
309
304
303
308
313
313
309
308
311
317
318
315
312
316
320
321
317
316
319
322
321
319
319
321
322
321
318
315
315
318
318
316
316
317
322
325
322
317
317
317
314
310
309
314
321
321
318
316
318
322
326
327
329
331
334
335
334
335
337
340
337
328
321
324
327
327
320
313
314
323
333
335
328
323
327
339
352
372
394
414
413
376
308
242
209
199
173
162
199
262
320
345
348
345
345
345
344
344
349
355
355
354
353
354
361
363
361
360
363
367
366
363
363
369
376
378
376
372
374
382
388
394
402
409
418
423
426
429
436
446
450
449
449
452
452
448
440
432
424
415
401
384
370
361
357
348
335
326
324
326
324
320
315
314
317
319
317
311
313
321
325
324
321
322
326
328
325
322
326
330
330
325
322
325
330
330
326
322
326
330
330
326
327
329
329
325
321
319
322
328
329
326
321
321
324
326
323
321
321
327
329
325
322
323
326
326
324
323
328
334
340
343
341
337
339
338
332
324
323
329
331
330
327
326
326
328
327
325
327
338
349
353
368
396
426
442
418
355
290
242
199
156
156
199
264
317
341
342
339
341
342
342
341
344
350
353
351
348
350
356
360
357
352
354
361
365
364
360
361
367
373
374
372
373
381
387
390
389
393
403
413
418
420
424
436
443
443
437
433
436
435
428
416
411
411
404
390
374
362
355
350
340
329
323
326
330
327
317
313
318
322
318
312
310
317
326
327
322
321
325
330
332
330
328
329
330
327
325
325
330
334
330
326
325
328
331
329
325
324
329
332
328
321
320
328
332
330
324
321
327
332
332
329
328
332
334
333
333
334
340
346
341
332
322
321
327
327
324
323
328
333
329
323
321
325
331
335
339
354
384
410
425
416
379
328
276
221
158
144
184
244
290
314
329
338
342
340
337
337
344
348
345
342
344
351
355
351
345
346
355
363
362
356
356
364
370
368
366
368
375
378
378
377
379
389
403
409
410
413
423
432
432
427
426
433
437
432
422
414
414
413
400
379
361
353
349
339
329
325
327
328
324
315
310
314
318
317
314
312
315
319
322
322
322
325
329
327
322
320
325
329
327
324
324
326
329
327
321
317
322
327
325
321
320
324
327
325
321
319
323
327
325
320
318
321
323
323
319
317
324
331
330
325
320
323
329
332
333
336
339
342
338
330
322
323
326
324
319
319
324
328
326
322
320
324
331
335
338
349
375
402
419
404
356
295
242
205
166
151
180
239
291
323
336
341
341
339
336
339
347
352
351
346
346
352
358
359
355
353
357
362
361
358
358
364
367
367
367
369
376
382
384
384
386
395
406
412
413
416
426
433
435
434
436
440
441
436
427
419
414
410
394
378
366
360
354
342
328
320
321
325
322
315
311
315
321
319
313
310
314
317
315
311
312
317
323
323
320
319
323
326
324
319
317
322
326
326
319
317
321
327
323
317
315
320
326
326
321
315
318
321
321
317
315
320
325
322
316
314
316
320
323
321
321
326
329
325
322
323
333
344
342
335
329
329
328
322
317
315
321
327
327
320
316
321
328
328
326
331
345
369
390
403
405
379
317
245
197
180
163
162
196
250
306
340
349
344
338
337
343
349
349
346
345
351
357
356
353
353
358
363
363
358
358
363
369
368
365
365
372
381
383
380
379
388
399
405
405
408
418
429
434
434
436
441
448
446
439
433
433
432
420
403
388
381
375
362
345
332
329
329
324
318
315
316
319
318
312
310
316
320
317
312
309
313
320
320
317
316
321
327
327
322
318
320
324
323
318
318
323
325
323
320
319
322
326
325
320
318
322
327
324
318
314
319
324
322
317
314
321
327
325
320
318
322
327
325
318
315
320
328
328
321
318
321
329
330
325
324
331
337
334
325
321
329
343
347
343
338
339
338
330
320
317
324
332
334
326
322
327
332
329
323
324
340
360
384
403
416
414
372
291
213
174
163
151
162
208
272
328
353
352
340
333
340
351
354
351
349
355
359
358
355
353
357
364
365
363
361
366
373
372
366
365
373
382
383
381
381
389
400
403
405
408
420
435
438
436
438
445
453
455
450
444
445
445
436
419
404
397
390
378
362
348
343
342
333
322
317
320
324
321
313
310
314
321
320
315
312
318
323
321
315
313
318
326
327
322
319
323
328
326
319
319
325
329
327
320
317
322
331
329
320
312
315
323
323
316
312
316
323
324
320
317
320
327
324
316
312
317
325
324
319
317
322
327
327
320
318
322
328
326
321
317
320
327
327
320
317
324
332
333
327
322
326
334
334
328
324
329
340
340
335
336
342
349
348
341
333
330
330
329
326
323
327
334
334
328
324
327
334
341
345
356
387
419
442
435
390
324
268
216
156
133
170
236
293
325
337
345
348
344
340
339
345
353
354
351
350
357
365
365
359
354
358
366
369
366
362
364
372
376
373
370
373
381
384
381
383
395
407
409
408
410
419
433
436
432
429
433
442
441
434
427
423
418
409
394
379
371
368
360
348
338
335
335
331
322
317
318
322
321
316
314
319
323
323
319
318
324
330
330
326
323
327
335
337
326
316
317
325
328
324
320
322
329
330
322
318
320
326
326
320
317
320
326
328
322
318
318
324
326
321
316
319
325
327
323
319
320
327
328
321
318
322
330
331
324
318
323
332
331
325
321
328
336
334
329
327
332
338
337
335
337
344
349
348
340
331
329
331
332
326
323
327
336
336
331
326
329
335
339
339
344
368
399
420
424
400
354
300
245
193
145
157
211
272
310
331
340
348
348
342
338
343
353
355
351
347
351
359
361
357
353
357
365
366
362
359
363
372
375
371
367
370
379
382
379
380
387
398
404
406
409
418
428
432
432
431
435
441
440
431
422
419
419
410
392
376
370
367
361
348
336
333
335
331
322
316
318
323
322
316
313
317
323
322
318
315
320
327
328
325
322
326
330
328
323
319
323
329
329
325
320
323
327
328
323
315
316
325
330
324
317
315
321
323
320
317
321
327
329
323
315
317
323
328
324
319
321
327
328
321
316
319
329
333
325
317
320
327
329
324
323
327
335
339
335
335
341
347
348
341
332
330
332
331
327
322
325
332
335
331
325
325
330
333
335
339
354
385
409
419
406
366
305
248
206
168
147
171
226
280
321
342
350
349
340
336
341
351
355
351
347
350
360
362
358
354
357
365
367
363
357
361
370
373
368
363
367
376
381
381
381
390
402
409
409
410
420
432
439
438
436
439
446
448
442
434
430
430
420
403
388
380
377
366
349
335
330
333
331
324
315
314
317
317
311
307
310
318
321
316
310
313
320
322
318
313
315
323
326
322
317
320
330
332
325
317
317
324
328
324
317
318
325
326
321
315
315
322
326
323
316
316
323
324
319
315
318
326
328
322
313
314
323
328
324
317
318
327
331
327
323
325
333
335
333
329
336
344
347
344
335
332
334
331
326
321
323
330
332
328
322
322
328
331
330
331
340
361
388
407
421
414
377
314
249
201
163
155
185
237
284
319
345
353
347
339
338
346
350
348
344
346
355
361
355
350
353
363
367
361
355
357
366
372
371
367
367
375
382
380
380
385
395
402
403
403
411
424
433
433
432
437
447
449
442
434
431
432
426
413
398
388
383
373
358
343
338
339
335
326
320
317
319
318
315
312
312
318
321
318
315
319
327
329
322
316
316
325
330
326
320
322
328
331
326
321
322
328
330
325
320
321
329
332
328
322
322
327
329
324
317
319
326
328
325
320
320
325
326
323
321
324
331
333
329
323
326
333
338
337
333
335
342
342
332
321
319
325
332
329
321
322
328
330
326
322
323
330
339
342
346
368
399
424
421
382
322
271
229
178
148
170
227
281
316
332
338
342
345
343
336
338
347
353
350
346
348
357
361
358
352
351
358
363
360
356
360
369
374
372
368
370
377
383
384
384
393
406
413
413
411
416
428
438
439
436
435
439
441
433
421
413
410
402
388
372
361
355
347
334
323
318
322
324
319
313
313
319
320
316
310
308
316
321
319
313
315
323
325
320
315
317
324
329
325
319
319
326
327
323
318
319
326
330
326
318
316
321
325
321
317
317
322
325
321
314
314
323
325
319
316
319
324
324
320
316
318
326
329
323
318
320
329
334
332
330
334
343
347
341
328
321
321
323
321
318
320
328
333
328
320
318
325
330
331
333
342
366
392
407
406
380
327
263
212
183
155
160
199
255
303
332
346
348
343
337
338
347
353
351
346
348
355
359
358
352
352
359
366
363
358
358
365
369
367
364
369
379
385
383
380
384
396
405
405
406
414
428
436
437
435
438
445
448
441
432
428
428
423
409
391
379
375
368
353
336
329
330
331
323
314
311
316
319
315
309
309
315
319
317
312
313
320
323
320
316
317
323
327
324
318
317
325
331
328
318
316
322
327
326
322
319
320
322
321
316
314
321
324
321
317
316
321
327
326
320
315
319
320
317
315
316
322
325
320
314
314
322
327
325
319
320
328
332
332
332
335
341
343
339
328
321
324
329
326
320
320
328
334
329
322
321
327
333
337
341
353
382
408
418
401
349
277
216
186
170
153
172
228
290
330
346
351
350
345
341
343
352
358
356
352
351
359
365
364
359
360
367
371
369
363
363
372
378
376
372
374
383
390
390
390
393
404
415
419
419
422
433
444
445
441
443
449
455
451
440
433
429
423
408
390
377
371
364
352
338
331
331
330
323
315
311
316
320
317
312
311
317
321
318
314
315
324
326
322
317
319
325
330
327
321
320
326
329
326
321
320
326
331
326
319
318
324
328
326
321
319
324
329
326
319
315
321
327
326
319
318
323
326
322
318
318
325
329
326
320
318
324
329
326
322
321
327
330
328
323
321
328
333
331
326
326
332
338
340
341
341
346
348
340
327
320
327
334
332
324
322
328
334
333
327
325
330
340
344
347
367
399
427
430
397
334
273
226
183
147
160
214
278
320
335
340
344
348
347
343
342
349
355
353
350
351
357
362
361
355
354
362
367
364
360
360
366
372
371
368
368
377
385
386
386
390
402
412
412
411
416
428
439
441
438
438
443
444
438
429
422
419
415
402
385
369
363
356
346
335
327
329
334
329
320
314
317
320
319
313
311
317
323
323
317
316
322
328
327
321
319
323
330
330
324
321
324
328
328
323
321
326
331
328
322
320
325
329
326
320
317
325
330
325
315
312
319
327
324
319
319
325
330
326
320
319
326
332
328
320
317
323
329
328
323
322
326
331
328
321
321
329
336
334
330
327
332
337
336
336
340
345
351
348
338
329
327
331
331
328
327
331
338
336
329
325
331
338
340
341
351
379
406
424
419
382
325
270
224
176
143
166
224
278
313
330
344
351
348
341
339
348
356
355
352
350
356
361
359
356
355
359
366
367
363
360
365
372
373
369
369
377
386
387
383
384
396
408
411
410
413
424
435
437
435
434
438
445
444
436
427
423
420
408
391
378
373
370
359
345
334
330
332
326
316
310
315
322
321
312
308
313
321
322
316
313
318
323
322
320
319
323
328
327
319
315
320
329
328
322
317
323
329
327
321
317
323
325
321
317
316
322
326
323
317
315
319
321
320
314
314
320
325
323
317
315
319
324
323
319
316
319
324
322
317
315
320
326
328
324
322
324
328
328
322
319
324
331
331
326
322
327
335
333
327
328
340
351
350
341
335
336
337
331
323
322
329
335
333
326
325
330
336
332
328
332
345
363
384
398
412
410
374
304
232
190
174
160
172
213
271
327
353
352
342
337
344
351
352
347
347
354
361
361
357
355
363
370
367
359
357
364
372
372
367
365
372
379
380
377
376
385
395
400
404
408
419
429
436
434
432
439
448
450
443
439
443
446
436
420
407
400
393
381
365
350
345
345
339
328
320
321
324
322
313
309
313
319
319
315
311
315
322
322
317
315
321
329
329
324
321
325
332
326
318
316
322
330
330
323
318
323
329
328
322
317
321
329
330
324
318
321
325
323
318
316
321
327
325
318
316
320
326
326
320
320
325
330
327
321
319
323
329
327
323
320
324
331
331
326
322
328
335
333
324
320
327
337
337
334
329
330
338
344
346
346
346
349
346
336
327
326
331
333
329
327
329
336
337
331
327
330
338
344
347
358
386
418
438
429
382
315
261
214
165
145
177
243
297
328
341
350
353
349
342
341
349
358
357
351
348
354
362
364
360
356
360
366
367
364
361
365
371
372
370
370
376
381
381
382
383
392
405
411
412
413
422
434
438
435
434
443
451
448
437
426
422
420
410
394
379
371
369
359
346
334
329
331
327
320
315
319
323
320
313
307
313
321
322
316
312
318
327
328
322
317
321
327
328
325
321
323
329
330
325
322
325
330
329
324
320
324
331
330
322
319
324
330
327
320
316
321
327
325
319
315
319
325
327
323
321
324
330
328
323
318
319
325
327
321
317
322
329
330
327
323
329
337
339
335
335
340
346
346
338
328
324
328
330
328
327
330
335
330
323
321
328
335
336
334
334
348
378
404
418
415
388
338
278
222
172
151
179
229
276
310
332
347
350
343
337
343
354
355
348
345
351
359
362
357
354
358
364
362
358
360
367
372
369
366
365
372
380
383
380
378
386
399
405
404
406
416
428
432
430
427
432
443
444
435
429
427
427
418
401
386
378
374
365
351
338
334
335
333
325
319
317
319
318
314
309
311
318
320
317
314
315
322
323
319
315
319
327
328
324
321
324
330
330
321
317
321
328
329
323
318
321
327
326
319
314
321
326
328
321
315
320
327
329
323
317
317
323
323
318
316
319
326
328
323
316
319
327
327
323
320
323
330
331
329
330
337
343
343
335
328
326
327
324
320
317
320
329
333
330
323
323
330
329
327
329
339
368
395
412
411
387
336
276
224
186
157
169
209
258
299
331
348
348
342
337
341
349
352
347
344
348
355
358
355
351
354
361
363
359
356
359
366
368
366
361
365
375
380
378
376
381
392
399
403
405
415
428
433
432
432
438
447
448
439
431
427
427
419
404
388
381
377
367
351
335
330
331
328
322
316
316
320
319
314
311
313
317
318
314
312
318
324
323
318
314
320
327
328
324
320
323
328
327
321
318
322
330
331
323
318
322
329
329
322
317
319
327
328
323
318
321
326
326
318
315
318
325
327
321
317
319
326
327
321
318
323
330
330
325
324
330
337
335
330
331
337
346
347
337
326
323
328
330
326
322
323
331
332
328
323
327
331
330
331
337
352
380
403
416
405
365
301
238
197
170
156
179
231
281
319
339
350
349
341
337
343
352
354
349
346
350
357
358
355
352
356
365
368
364
360
362
369
371
369
368
371
380
385
382
381
387
400
409
411
411
420
435
440
438
438
444
453
451
443
434
431
430
421
405
387
376
370
359
345
334
332
332
327
318
311
313
319
320
314
309
312
317
318
314
309
314
321
322
317
313
315
322
324
320
316
320
327
329
324
319
320
327
328
322
317
319
328
329
323
319
319
325
326
319
313
316
322
325
320
314
318
327
330
323
315
317
324
326
321
317
320
327
327
322
318
321
328
329
324
320
324
332
333
327
324
328
338
344
340
337
341
344
339
328
319
322
329
331
327
322
325
332
334
328
322
326
344
356
367
382
405
422
402
333
248
193
186
177
164
181
236
304
344
349
340
340
347
350
347
343
348
356
359
356
351
354
363
370
366
361
362
367
370
369
365
367
375
380
379
376
380
391
398
398
398
407
419
428
429
431
439
450
456
453
447
446
450
449
439
425
416
411
402
382
363
355
352
346
335
325
323
326
326
318
311
314
320
322
316
311
314
322
325
317
312
316
324
327
323
318
319
326
329
325
320
321
328
328
324
320
322
328
331
328
323
322
326
326
321
318
319
327
328
322
316
317
324
328
324
317
319
324
327
324
319
319
326
328
324
319
319
326
329
326
321
321
326
329
325
321
323
329
332
328
323
324
332
335
330
325
328
335
338
333
328
332
339
344
344
340
344
352
350
338
325
324
331
335
331
327
328
335
338
333
326
327
339
352
356
366
391
423
443
424
361
292
244
205
161
152
192
259
313
335
340
342
347
348
345
342
345
352
355
350
348
354
362
364
360
356
359
366
368
363
359
363
373
380
374
369
372
382
389
388
387
393
404
413
417
416
423
436
441
439
437
439
447
448
438
426
421
418
408
390
375
367
365
359
347
334
328
331
332
325
317
315
322
323
317
312
313
321
323
318
313
318
327
329
324
318
320
328
331
328
323
324
330
332
325
317
318
328
332
327
321
321
328
331
325
319
322
331
331
324
317
319
327
330
323
316
317
325
328
325
321
322
327
329
324
318
320
327
329
322
316
318
327
330
326
323
322
328
331
326
323
327
333
332
325
319
322
330
334
329
324
327
336
341
337
331
337
346
352
347
339
334
333
333
327
321
322
330
335
331
325
327
333
336
335
336
343
365
393
410
417
404
365
304
242
198
157
157
194
247
291
323
344
349
344
337
338
347
354
354
349
350
357
360
354
347
349
360
367
364
357
357
364
369
368
365
364
374
379
377
372
375
388
396
397
398
405
418
428
431
431
436
444
447
442
435
432
433
428
415
399
390
385
375
359
345
339
338
334
326
318
317
321
323
319
310
309
315
319
315
310
310
318
322
321
316
315
321
326
323
318
318
325
328
326
320
318
324
328
325
320
320
327
329
321
317
319
325
325
320
316
318
324
326
321
317
317
323
324
319
316
317
323
328
325
319
320
326
330
325
317
318
326
330
324
318
320
328
330
325
318
319
328
335
332
323
322
329
331
327
324
327
334
336
330
326
327
336
341
342
342
343
348
350
342
329
324
328
335
334
330
330
336
338
332
325
327
333
341
347
352
374
402
424
423
387
325
268
229
201
166
166
211
272
318
337
342
347
348
344
341
345
355
360
356
351
353
360
365
360
354
356
367
373
369
362
361
369
373
372
370
373
382
388
387
386
391
404
413
415
416
424
435
443
441
438
440
449
452
446
436
430
432
427
410
391
378
372
365
353
339
332
332
331
325
317
315
320
324
321
312
310
317
321
317
313
315
322
326
321
317
319
328
329
322
317
317
326
331
327
320
319
325
330
327
319
319
326
329
325
320
321
326
327
323
319
320
326
328
322
316
317
324
329
324
319
318
325
331
328
320
317
323
327
324
319
321
329
333
329
321
321
326
332
330
325
326
336
339
337
330
328
337
346
345
340
339
340
340
329
322
322
330
334
332
329
330
336
338
333
327
330
341
351
363
383
405
424
416
367
300
243
210
174
162
192
246
298
333
343
340
340
345
348
346
343
344
351
356
353
347
351
363
369
363
355
354
362
368
366
361
361
370
376
376
371
371
381
389
393
391
394
404
416
422
423
427
437
444
440
434
433
439
442
434
421
411
406
398
383
367
357
352
346
336
323
318
322
325
320
313
312
318
320
315
310
308
314
318
315
310
312
319
324
321
314
313
321
327
325
320
318
323
328
325
321
320
324
327
325
319
318
324
328
323
315
315
321
326
322
315
315
323
326
322
316
316
322
326
322
318
318
323
327
321
314
315
325
331
326
318
316
324
331
328
321
320
326
331
329
323
325
333
337
335
333
335
343
349
342
331
323
323
326
325
323
324
329
331
329
323
322
328
337
340
342
353
381
408
422
406
356
292
238
204
172
156
184
238
290
322
340
348
350
344
337
335
343
353
354
348
348
355
362
358
352
353
360
365
364
359
359
366
374
372
367
366
375
382
382
382
388
398
407
407
407
411
426
439
440
437
438
445
451
447
437
429
428
424
410
393
378
371
363
352
338
328
327
328
322
313
311
315
319
315
309
309
315
317
315
310
311
318
324
320
314
314
321
327
324
318
317
323
330
326
319
318
325
329
325
319
317
324
328
325
317
315
320
326
323
317
315
321
326
326
318
316
319
324
322
316
315
322
327
324
318
316
320
325
323
319
320
326
327
323
317
316
323
332
329
323
323
328
332
331
328
331
341
346
344
338
332
331
331
325
321
323
328
332
330
325
322
326
330
327
323
333
353
376
394
404
405
380
317
236
183
174
170
170
197
249
305
343
357
349
338
337
346
356
356
354
353
358
362
358
354
354
363
371
369
363
362
369
374
373
369
367
374
383
383
379
380
391
402
404
402
408
423
434
437
436
440
451
461
460
450
444
443
442
433
419
406
398
389
374
357
345
343
341
332
321
317
321
324
321
313
310
315
320
317
310
309
316
321
320
317
316
321
326
323
318
315
321
329
327
321
318
325
331
327
319
318
323
329
328
322
318
323
327
326
319
316
322
326
322
315
314
320
325
325
319
317
322
327
326
323
319
322
326
324
318
318
325
332
331
323
319
323
329
328
324
323
328
333
329
323
323
330
336
334
328
328
334
342
344
339
340
346
345
334
320
317
325
333
332
328
326
330
335
332
328
329
337
351
359
376
398
424
429
388
309
235
197
181
159
164
209
276
330
347
344
339
344
351
351
347
347
352
358
358
355
355
360
364
363
358
355
362
372
372
367
363
369
376
377
373
375
385
394
397
395
398
407
417
423
426
430
439
450
454
451
447
451
454
448
437
427
420
413
401
381
362
356
353
346
333
324
324
326
319
313
311
316
321
319
313
310
315
321
320
314
310
315
321
323
320
318
322
328
327
322
319
325
330
329
322
319
325
331
328
320
316
322
329
325
318
315
321
327
326
318
314
320
327
326
320
317
322
328
326
320
318
322
328
328
323
317
321
328
327
320
317
323
330
329
323
323
329
334
332
325
324
330
337
338
339
339
344
349
344
332
323
326
332
330
323
322
328
333
330
324
322
330
337
340
340
351
381
411
431
422
382
326
270
220
164
139
172
237
291
318
331
341
349
346
340
339
344
352
351
347
347
355
362
362
356
354
360
365
363
357
358
366
373
371
367
366
374
383
384
384
386
393
403
407
408
413
424
436
439
438
438
443
448
447
439
431
430
425
411
395
381
373
368
357
343
334
334
336
329
320
313
317
324
322
314
308
313
320
320
316
313
318
325
325
320
319
324
331
329
321
317
322
331
331
324
321
325
329
328
323
319
323
329
328
321
318
321
324
321
316
314
319
325
326
320
315
319
326
326
321
317
321
327
325
319
318
324
329
326
321
320
326
332
333
328
326
331
341
342
340
337
339
338
332
322
318
323
329
329
324
321
324
329
329
325
324
334
346
353
368
389
418
429
397
331
267
223
185
153
164
212
271
319
339
339
335
340
346
347
344
343
349
355
356
351
351
357
364
361
354
352
358
368
367
362
359
366
373
373
370
370
378
389
391
389
392
406
420
424
422
422
430
441
444
442
438
438
442
440
427
413
407
401
387
370
356
351
347
339
326
318
319
323
321
312
308
312
318
315
308
307
313
319
318
315
314
318
323
322
317
315
319
325
325
320
317
322
327
326
319
315
320
327
327
321
317
320
323
322
316
312
317
322
320
317
315
318
325
323
317
316
320
324
322
316
313
319
327
327
320
318
320
325
325
322
321
328
337
343
339
335
335
340
336
324
315
320
327
328
323
322
327
333
330
323
319
323
335
344
350
366
391
418
424
390
326
263
220
193
158
156
199
264
316
338
342
342
346
346
341
338
344
352
353
349
346
351
362
362
357
354
359
365
367
363
358
366
376
377
371
367
372
381
385
384
388
399
410
415
416
421
434
447
449
445
442
449
455
451
439
429
426
423
409
391
372
360
357
350
336
322
321
325
324
315
309
311
318
318
314
309
314
318
319
316
313
319
325
323
317
314
318
323
322
319
317
320
326
326
320
318
322
328
327
321
318
320
326
326
322
318
322
327
323
317
313
318
324
323
319
318
321
326
327
322
320
323
330
330
325
322
327
336
340
337
333
337
342
338
326
316
318
327
330
325
320
322
330
331
327
321
325
340
348
349
366
394
426
435
402
339
287
245
193
152
159
213
276
320
336
337
338
341
342
339
338
342
349
350
345
342
348
357
358
352
348
354
362
364
360
355
358
366
367
364
364
371
381
385
384
385
396
409
415
413
414
425
439
444
439
434
437
442
438
426
415
410
406
394
377
362
357
355
346
333
322
321
325
324
317
311
314
321
322
316
309
313
321
321
315
312
316
325
326
321
316
319
325
326
321
317
322
330
331
324
317
322
329
328
321
316
320
327
328
322
318
319
323
323
319
316
319
326
326
320
316
322
330
332
327
322
322
327
328
326
327
336
345
346
338
330
328
330
328
322
319
323
330
329
323
319
324
330
329
324
328
340
357
382
399
414
410
373
312
253
207
168
158
185
235
283
324
347
348
339
333
339
348
350
346
343
347
354
357
353
351
355
362
363
358
353
358
368
370
364
361
365
374
379
377
378
384
394
399
401
403
411
422
428
429
431
440
447
447
441
434
432
434
429
413
395
383
378
367
349
336
333
334
330
319
312
314
319
318
311
308
311
317
318
312
309
314
321
320
314
311
316
325
326
321
316
319
326
327
322
318
320
327
328
323
317
319
326
327
320
317
320
325
322
315
309
315
324
326
322
316
317
325
325
319
316
320
328
328
321
316
319
328
331
329
325
326
332
336
336
332
334
339
337
326
317
320
327
330
324
320
322
328
330
324
318
320
332
344
350
363
387
411
414
377
308
241
206
194
166
154
192
261
323
346
344
341
344
346
344
342
345
351
353
350
349
353
361
363
358
354
359
369
370
364
361
365
374
374
371
371
378
387
390
388
390
399
414
420
420
419
428
440
448
450
447
448
451
448
438
426
421
416
405
385
367
358
352
345
333
323
321
324
323
318
311
312
318
320
314
308
310
318
321
317
312
314
322
324
319
316
321
329
329
321
315
319
327
327
321
317
320
326
327
323
317
319
325
326
320
315
316
324
327
322
316
318
322
324
321
317
318
325
326
321
314
317
326
327
322
316
318
327
329
324
319
321
331
336
332
330
337
344
345
339
332
328
329
328
325
321
323
331
333
329
321
324
332
335
333
337
351
379
406
419
414
376
308
234
190
171
151
161
209
271
321
346
354
351
344
340
346
356
360
355
350
351
359
364
360
356
360
370
373
368
364
369
377
378
372
369
375
385
389
386
386
393
404
411
412
415
423
437
443
443
443
451
458
459
451
443
439
436
429
414
397
384
378
368
354
340
334
336
334
324
314
316
324
325
316
307
308
317
322
317
313
316
323
325
321
316
320
328
330
325
319
322
328
329
323
316
319
327
328
322
318
321
327
328
323
317
319
326
326
323
320
321
327
327
319
314
315
322
326
321
318
319
325
327
321
317
322
328
328
323
318
321
328
331
327
322
321
329
332
326
320
322
331
333
330
324
327
333
335
331
327
333
347
353
348
342
339
337
332
324
322
326
333
335
330
325
326
333
336
332
333
343
361
389
410
431
439
415
350
280
218
172
149
169
216
269
316
345
351
346
339
341
348
352
350
348
348
356
359
355
351
355
362
365
363
358
359
367
371
368
363
367
376
382
379
376
381
393
402
401
400
405
418
429
431
430
433
442
445
440
435
435
437
433
421
406
397
393
383
368
354
347
345
341
332
323
318
321
322
317
312
314
321
324
321
317
319
327
329
325
319
319
324
328
324
320
324
332
333
327
321
323
331
332
327
319
321
330
333
330
323
320
323
322
319
316
318
324
326
322
316
317
324
327
322
316
318
326
328
322
316
319
327
330
326
321
321
327
327
321
317
322
330
333
330
322
322
330
334
331
327
332
343
349
347
342
339
338
331
323
320
323
330
333
329
325
328
334
334
326
323
333
349
365
385
403
424
427
390
322
254
206
162
153
185
238
286
326
343
345
339
339
347
352
347
341
344
354
359
357
352
353
359
363
359
355
357
366
372
369
364
365
372
379
379
374
379
389
395
396
396
403
415
423
424
422
428
437
441
437
432
432
438
436
424
408
398
393
384
369
352
346
346
342
332
321
318
321
321
318
313
311
315
317
316
312
313
320
324
321
315
314
320
325
324
319
319
325
328
323
317
318
326
329
323
317
317
324
327
324
317
316
322
325
321
314
314
322
325
322
318
316
321
324
323
319
318
323
326
323
318
320
327
331
324
318
318
325
329
328
325
326
335
342
341
339
338
338
335
326
317
316
323
329
324
320
321
327
331
325
317
319
333
346
351
365
389
417
427
396
333
273
227
187
147
154
204
271
322
339
336
334
339
344
343
341
344
352
355
350
346
347
355
360
357
353
354
361
366
362
358
359
368
373
371
369
372
381
389
391
391
396
408
418
421
421
425
438
445
443
439
440
445
444
435
421
412
410
402
387
367
357
353
347
335
323
320
324
325
319
311
311
318
318
313
306
308
315
319
315
311
313
320
325
321
316
316
323
327
325
319
319
324
328
325
320
319
326
329
326
319
317
322
327
324
317
316
321
323
319
312
312
319
322
322
317
317
324
324
318
312
314
321
326
324
318
319
324
328
326
320
320
328
337
338
334
333
340
343
335
323
319
326
329
325
320
321
327
330
327
320
320
328
341
344
349
369
398
419
415
373
303
241
206
182
151
156
210
277
324
339
341
346
348
345
340
341
350
357
356
349
348
356
362
361
356
356
363
369
366
362
361
370
376
376
369
370
381
391
392
389
393
406
416
418
417
424
438
448
449
445
446
453
456
448
435
428
425
418
401
381
367
363
358
346
332
325
324
326
321
314
314
317
321
317
310
307
313
320
321
313
308
315
322
321
317
316
323
326
323
319
318
325
330
327
321
320
325
329
326
319
316
321
325
321
314
316
323
327
324
318
316
322
327
324
318
317
323
329
324
316
315
323
329
325
318
318
326
331
328
322
322
330
337
334
333
336
342
347
342
332
325
327
328
327
325
323
331
335
331
323
322
329
335
335
333
338
361
390
413
426
412
371
312
254
207
163
159
195
248
293
323
344
351
346
338
336
345
353
353
347
346
351
357
357
353
355
362
365
363
357
357
365
370
369
363
365
376
384
382
376
380
393
404
409
406
408
419
432
438
436
435
442
449
447
438
433
433
430
417
399
386
379
371
359
347
336
334
332
326
317
314
320
323
318
311
308
314
320
320
314
310
315
320
319
317
317
322
327
325
321
320
327
331
327
322
322
327
330
328
321
319
326
330
327
321
319
323
326
322
316
315
321
327
325
318
316
321
327
325
320
318
323
326
324
319
319
324
329
326
318
317
324
330
327
323
322
325
328
329
325
324
330
334
332
327
327
338
347
345
339
335
337
336
328
321
322
329
335
330
323
322
330
334
331
325
331
344
359
378
395
414
421
392
326
259
211
184
163
175
218
269
317
344
347
340
335
341
348
347
343
344
351
356
357
354
352
357
363
361
357
355
359
366
367
362
363
370
375
373
370
373
383
393
395
393
397
410
423
427
423
424
434
444
445
441
438
441
441
431
415
403
397
389
376
359
348
344
342
333
322
317
321
324
319
309
305
312
319
319
312
309
315
321
319
313
311
316
324
323
318
315
324
331
326
318
316
322
330
327
320
319
324
329
325
318
317
322
327
324
316
316
322
329
326
319
315
321
327
325
319
315
320
326
326
319
316
322
326
323
319
318
324
327
325
321
320
326
331
329
323
320
325
330
330
325
324
329
334
331
325
322
328
335
336
333
330
333
336
336
333
331
342
352
352
346
342
344
344
335
324
322
329
335
334
328
326
332
338
335
329
334
351
371
391
406
415
405
359
284
215
188
179
171
185
230
287
335
356
353
341
338
344
354
353
346
345
354
362
359
353
352
360
368
366
361
360
368
375
372
366
367
375
381
381
378
377
387
399
401
399
403
416
428
433
433
435
444
453
453
447
443
446
447
439
424
411
403
395
380
362
350
347
346
339
327
319
321
322
319
311
308
314
320
319
314
312
315
319
318
313
311
317
323
323
316
314
321
328
327
321
318
322
327
326
321
319
324
329
327
322
318
323
326
323
317
313
319
325
322
316
315
321
326
324
319
317
322
326
324
319
315
322
328
325
317
315
320
328
327
321
318
323
330
329
323
321
326
331
327
322
320
326
332
330
323
321
328
333
330
326
323
329
335
334
327
322
326
334
334
329
324
331
340
341
339
341
349
354
352
341
334
334
335
332
328
328
334
339
336
329
324
330
339
346
351
363
392
421
431
406
343
268
212
193
179
160
179
237
300
338
348
349
350
347
342
345
353
362
359
352
350
357
365
365
359
356
364
371
371
366
363
369
376
377
373
372
381
392
394
389
388
399
411
417
417
420
432
444
448
446
445
453
459
455
449
443
439
435
424
408
390
380
373
360
347
338
338
336
328
318
313
317
321
320
315
311
316
323
320
312
307
312
320
321
316
315
321
328
324
317
315
322
334
335
326
319
320
325
325
321
319
324
328
325
320
318
322
328
327
319
317
322
325
322
317
316
320
327
325
318
314
319
326
325
321
315
313
315
319
323
325
326
325
316
309
309
320
334
337
331
326
331
337
333
324
321
327
335
335
330
326
330
336
334
327
323
330
338
341
336
331
336
341
345
346
346
351
355
351
337
327
328
336
335
331
329
334
340
337
328
323
333
348
355
353
365
396
426
440
419
363
304
258
212
159
153
199
262
311
335
344
346
348
347
345
346
351
355
353
351
350
357
364
364
359
355
359
366
366
362
361
367
373
372
368
370
382
390
388
381
381
392
408
415
415
415
424
437
443
439
437
444
449
447
436
426
424
424
415
399
384
375
370
360
346
336
334
335
331
321
316
317
322
324
319
311
312
319
318
313
311
316
325
325
320
315
321
327
327
324
321
326
331
328
321
319
325
332
331
323
317
318
325
327
324
320
323
327
328
324
316
318
325
326
321
317
322
329
328
320
312
315
323
324
319
316
321
329
330
325
321
321
329
331
323
314
316
325
329
325
322
323
323
323
323
322
332
341
342
338
331
329
339
349
340
326
324
335
335
328
324
334
339
333
330
334
337
338
333
328
328
341
354
364
382
401
423
429
394
329
261
213
174
173
202
241
285
326
346
350
344
344
351
358
355
343
340
349
353
342
342
359
377
377
358
345
339
353
382
397
393
389
384
374
371
383
396
403
394
381
388
413
419
411
403
396
411
441
449
436
431
439
452
453
444
437
430
430
423
387
349
340
349
352
340
327
324
328
326
319
318
325
329
326
320
316
319
323
323
319
317
322
328
326
319
317
323
330
331
324
318
321
329
328
320
314
319
326
323
318
316
321
325
326
319
312
313
318
320
315
307
307
319
328
324
314
311
314
319
319
314
314
317
318
315
313
317
322
317
313
313
321
335
332
322
315
324
340
346
338
330
335
338
326
312
311
325
335
335
322
310
311
319
325
333
335
324
322
340
368
391
415
424
397
338
278
235
197
156
160
202
262
311
332
333
328
334
347
352
345
337
340
345
350
350
338
333
348
366
368
360
358
364
367
361
354
355
363
365
368
372
377
377
380
388
392
398
414
421
417
409
414
435
451
451
438
430
436
444
438
423
412
404
390
367
346
339
345
347
337
328
325
325
325
316
304
304
311
317
315
313
315
314
315
311
309
316
325
327
326
323
318
317
320
320
321
326
328
323
315
317
327
336
336
329
327
328
336
340
327
314
319
334
336
330
325
329
339
338
333
333
336
342
337
335
346
355
353
352
351
343
333
332
336
338
339
339
342
344
344
344
348
352
353
353
354
363
387
418
437
432
402
353
306
266
226
204
221
263
300
329
350
369
377
371
362
363
372
372
374
378
382
384
380
370
375
392
399
394
380
377
387
395
401
395
389
394
404
409
406
400
404
419
430
429
425
425
434
448
454
451
453
458
461
454
444
440
442
439
421
396
385
388
383
365
351
355
355
355
348
337
333
337
340
334
328
337
348
344
334
329
330
339
338
330
329
336
340
335
335
338
342
348
351
347
334
331
338
341
336
332
338
345
339
329
331
342
348
346
335
327
329
333
338
338
339
338
344
348
347
339
336
340
333
327
328
332
330
324
320
320
327
332
331
323
315
323
340
348
357
370
393
412
396
334
266
223
202
190
195
224
264
297
316
322
321
324
332
335
337
336
335
339
342
337
329
330
343
344
338
331
338
352
356
343
333
336
347
354
353
351
358
365
366
362
362
371
385
394
396
392
394
403
408
405
400
401
404
399
388
373
365
364
360
346
332
327
328
322
308
297
300
307
307
305
300
297
299
304
306
303
303
306
306
301
299
306
311
310
304
301
305
312
315
311
305
310
320
322
313
304
306
316
316
313
309
308
313
316
318
320
319
317
316
310
306
313
328
327
322
320
320
318
310
303
300
306
312
316
314
307
303
307
313
311
310
317
329
346
360
378
385
360
296
235
193
176
172
191
226
266
301
320
325
320
319
325
334
333
326
321
327
338
339
336
332
336
344
349
343
335
337
352
356
352
346
350
356
360
358
356
364
377
384
384
382
385
395
402
403
403
408
419
425
418
405
399
402
401
393
375
362
358
350
336
327
325
328
323
310
298
298
307
315
311
304
302
306
308
301
294
299
312
315
310
304
305
313
320
320
309
306
310
312
306
302
307
315
318
315
312
316
319
316
310
303
305
313
314
310
305
307
318
323
317
310
309
315
322
328
329
332
332
324
311
303
304
314
320
311
302
305
313
318
314
309
315
333
342
345
358
380
400
396
343
264
213
196
185
166
171
220
281
323
336
334
332
332
332
333
335
338
345
344
338
335
345
356
355
346
342
348
356
359
355
349
352
364
373
368
360
365
378
383
381
382
387
400
410
410
409
417
429
435
435
429
424
426
425
421
411
400
393
385
370
353
348
349
345
334
320
316
321
326
326
322
321
324
325
318
314
318
325
328
328
322
322
329
335
336
332
325
328
334
335
333
327
328
333
332
325
326
336
339
332
326
327
333
337
329
323
324
333
338
333
324
325
334
336
327
321
323
332
336
335
331
330
333
332
330
326
330
340
343
337
329
334
352
359
352
340
334
335
336
331
326
328
337
341
335
325
324
332
338
337
340
348
364
384
403
411
399
352
283
226
206
197
178
186
233
291
337
356
356
346
341
346
356
360
356
352
354
356
359
359
359
360
364
370
367
360
361
369
373
372
370
372
378
380
380
380
382
393
405
413
414
415
421
427
430
435
440
446
450
447
438
431
434
433
422
404
389
381
373
357
343
337
338
338
332
324
319
317
317
313
310
311
318
323
319
312
311
319
322
320
315
318
323
325
323
321
323
329
330
325
320
321
326
331
326
315
312
319
326
325
320
316
321
325
321
313
312
320
323
320
317
319
324
325
320
313
313
321
325
319
312
314
320
322
318
316
323
331
335
329
319
317
325
331
325
320
321
327
329
326
321
325
335
338
332
323
324
331
332
329
328
331
334
337
340
343
348
353
351
341
335
332
335
335
327
318
320
333
341
337
329
326
337
354
366
382
404
429
430
382
305
238
207
197
168
166
213
283
336
354
351
348
348
352
351
349
352
358
363
359
354
355
362
366
368
364
358
363
372
372
368
368
374
378
376
374
381
392
397
390
386
396
413
423
422
420
430
445
454
451
443
439
445
448
440
427
419
419
416
401
382
372
371
366
353
337
329
332
335
331
323
320
323
326
322
316
316
328
335
329
322
323
332
338
335
329
325
326
331
332
326
320
320
325
327
325
327
332
335
332
330
328
330
331
328
324
323
326
329
328
325
321
326
332
331
324
321
328
336
335
324
316
322
331
333
329
328
328
331
330
326
327
335
340
333
324
324
334
342
339
328
322
326
335
337
330
325
334
341
338
333
331
336
344
347
343
348
356
359
352
340
334
335
338
336
332
333
336
338
334
329
330
336
344
348
353
365
394
421
433
420
384
336
274
216
158
151
197
257
303
325
335
348
352
348
344
344
348
353
353
346
348
358
362
358
355
353
357
363
362
361
364
368
374
371
365
365
373
380
379
377
382
393
400
402
402
406
416
425
429
426
425
430
435
433
425
416
417
417
403
387
378
377
372
355
336
328
334
336
332
324
321
319
319
316
312
310
315
325
325
319
317
325
330
326
321
320
327
331
327
321
320
328
333
330
324
323
329
331
323
319
321
326
327
324
320
318
325
331
328
317
314
323
331
326
318
315
319
322
318
312
314
325
335
330
324
320
320
324
323
318
318
321
324
321
319
318
324
331
330
323
319
323
331
337
341
342
349
348
335
319
316
323
331
331
323
318
323
327
326
323
321
325
332
338
342
357
380
403
413
390
341
288
243
207
160
153
196
257
299
320
332
343
345
340
331
334
346
355
354
344
341
351
360
359
350
345
351
358
361
359
357
362
365
361
356
359
371
378
380
380
385
396
402
400
397
402
418
434
437
432
430
435
439
434
423
418
419
415
401
382
370
367
364
349
332
324
325
326
320
311
309
314
319
315
308
304
308
316
316
314
315
321
323
317
309
313
322
325
322
316
317
326
330
324
318
317
320
322
322
320
319
322
328
321
313
311
321
325
318
311
312
321
326
321
316
317
322
325
323
321
318
321
324
325
321
317
320
323
322
321
321
327
330
325
320
320
332
337
334
330
334
342
346
343
335
327
326
330
326
319
320
328
333
330
323
322
330
336
330
325
336
357
385
404
407
382
329
261
205
183
168
158
183
237
295
337
353
354
345
339
339
348
356
355
350
349
357
362
359
353
353
360
368
369
365
362
367
372
373
370
369
376
384
385
382
381
391
406
411
410
411
421
433
437
435
437
445
452
452
446
440
440
436
424
406
391
384
378
364
349
340
339
338
328
319
316
318
320
318
314
312
319
324
319
308
306
315
324
322
315
312
321
329
327
318
315
325
332
322
308
305
315
325
326
319
314
316
321
321
316
313
318
325
321
312
312
319
328
326
318
313
317
322
320
314
311
317
322
320
318
317
323
330
330
324
318
323
331
332
327
328
335
341
341
334
325
322
326
324
319
317
323
333
332
325
320
322
328
328
326
331
346
373
396
412
423
412
360
293
232
183
152
165
211
263
305
333
347
346
339
335
342
349
349
346
346
352
358
356
350
348
352
359
359
354
352
359
368
370
365
361
368
377
377
372
374
388
400
401
400
402
412
423
429
429
431
439
446
444
435
430
432
432
422
403
389
385
380
369
354
340
334
335
332
324
314
316
322
320
312
313
321
325
318
311
313
322
329
325
318
317
323
331
330
323
319
325
333
333
325
321
327
334
330
321
319
327
333
332
326
323
326
330
328
323
320
326
331
329
322
320
325
331
331
326
328
336
344
345
339
334
335
337
336
327
321
324
333
334
326
320
326
333
334
328
323
329
343
350
352
369
392
418
425
401
346
296
252
193
149
164
218
280
318
333
336
340
344
344
342
340
343
351
354
352
347
347
355
360
356
353
357
363
363
355
350
363
377
376
366
362
370
383
389
387
385
392
406
411
413
416
427
437
437
433
428
434
445
441
426
410
403
399
393
379
361
348
344
343
338
326
319
320
320
313
309
316
326
323
310
301
307
322
328
322
312
312
320
324
322
319
326
332
329
319
315
320
329
328
323
321
326
331
327
316
309
317
331
334
320
307
308
319
326
325
321
322
325
325
321
318
322
332
336
333
327
327
333
335
329
323
319
321
322
319
318
321
325
324
319
315
317
324
328
333
339
357
382
401
413
401
360
303
251
207
154
147
189
247
292
320
334
341
341
336
331
337
349
350
343
338
344
352
354
349
346
349
357
360
355
351
356
363
364
360
360
367
375
377
375
375
380
384
384
388
394
403
415
428
436
440
449
456
450
439
428
423
420
413
397
378
365
361
353
339
328
326
330
326
319
312
308
316
320
315
307
304
307
311
313
314
318
324
320
312
313
324
334
333
322
314
318
328
329
322
316
317
325
325
318
317
325
331
325
312
305
312
328
327
319
314
316
323
326
324
324
328
332
332
335
335
333
334
330
322
316
317
319
317
313
311
314
322
322
318
313
318
328
338
343
351
374
399
417
401
340
263
213
189
167
143
158
213
282
328
339
341
342
339
337
340
347
349
344
339
337
345
354
357
353
352
357
363
362
355
349
351
362
369
366
359
361
375
386
386
381
384
398
415
421
422
424
429
432
430
424
428
439
446
437
423
415
410
398
378
360
354
355
348
333
319
319
326
328
326
317
313
315
317
317
312
312
317
322
321
317
321
330
325
319
321
327
328
324
322
321
324
329
332
330
323
322
326
326
323
319
317
325
337
332
314
315
327
334
333
327
327
330
329
318
312
318
332
332
324
323
325
329
328
326
328
336
342
344
343
340
340
344
341
329
320
322
328
329
324
320
321
332
335
329
324
332
344
355
363
381
402
421
419
369
287
223
200
182
158
169
227
299
340
348
343
343
348
351
347
346
352
358
360
354
347
354
367
370
362
354
359
370
372
368
362
367
381
384
378
367
371
385
395
397
396
402
415
427
432
433
439
449
450
441
436
442
447
444
437
429
420
411
395
380
368
361
356
346
336
326
323
328
329
324
317
312
318
320
316
318
321
324
321
317
312
317
329
334
329
321
323
327
326
322
326
333
337
331
321
320
327
337
334
325
321
326
330
328
324
322
326
328
327
324
316
317
327
334
331
323
320
323
325
322
316
318
330
339
333
320
316
322
328
328
329
332
337
332
321
316
325
336
338
333
327
325
327
332
336
337
337
338
338
339
337
338
345
350
345
336
331
332
334
330
327
331
341
338
328
327
334
342
346
348
362
391
425
444
425
368
306
260
224
172
158
189
252
308
336
343
343
344
343
342
343
347
360
365
357
350
354
365
367
360
351
350
360
369
369
364
368
371
371
367
365
372
381
385
384
387
394
404
406
405
408
418
432
437
433
429
430
436
437
429
420
415
415
411
398
380
366
360
357
348
341
337
334
327
315
311
320
326
324
316
313
317
322
320
316
317
326
330
328
327
322
319
325
329
326
319
318
325
332
332
328
327
330
331
329
328
326
325
322
317
312
316
326
338
332
316
309
315
320
320
319
320
324
327
322
312
313
323
326
321
319
322
327
327
319
312
317
325
330
325
319
319
322
327
330
326
328
335
334
324
319
319
326
331
329
325
328
337
337
331
322
326
345
355
354
346
339
336
336
331
327
329
334
334
327
320
321
333
339
334
330
337
355
381
398
410
413
393
337
270
219
189
166
177
217
264
305
332
346
343
335
333
343
352
352
349
349
355
362
363
356
356
361
365
360
353
353
358
365
368
368
367
370
371
370
373
379
387
396
400
398
398
408
417
418
417
428
442
447
436
425
427
434
434
421
404
398
397
390
377
354
338
337
337
330
321
323
324
325
320
312
311
316
319
316
314
315
319
319
313
307
316
329
331
324
316
316
326
331
325
320
323
329
329
322
318
319
328
332
322
312
319
329
332
325
322
318
319
317
319
319
322
325
321
314
312
318
330
333
325
312
312
323
329
324
313
309
316
321
321
319
322
331
331
323
315
316
326
333
329
323
324
328
330
327
320
319
325
326
322
318
323
334
339
331
322
321
328
333
332
329
329
336
340
336
333
341
351
352
349
340
332
333
331
326
325
330
340
341
331
322
326
340
348
349
347
359
389
415
423
400
346
271
210
193
187
171
184
237
296
333
346
351
352
348
342
343
352
357
353
348
351
361
369
365
356
357
366
373
372
368
362
367
375
374
368
371
380
385
381
378
386
402
416
418
413
410
422
439
446
444
444
449
450
446
445
445
443
437
422
403
390
383
373
361
348
341
341
338
327
314
313
322
325
322
316
315
319
321
316
311
315
324
325
318
314
319
327
328
325
320
321
327
332
330
323
324
329
330
325
320
321
328
330
325
318
316
322
328
326
319
319
323
327
323
319
322
328
331
328
318
312
315
320
323
324
326
328
328
326
318
316
324
329
326
320
320
323
327
328
324
325
332
333
327
320
325
336
338
333
324
323
330
335
331
323
320
331
343
344
337
335
342
350
351
344
340
349
358
353
343
334
336
340
333
325
326
338
347
343
332
326
328
341
351
357
374
406
434
444
423
373
319
273
224
167
154
192
259
310
336
347
355
357
349
343
346
355
360
361
355
350
353
361
367
365
365
371
377
376
368
364
367
372
371
365
367
379
389
389
384
384
393
404
409
410
413
424
432
436
439
439
441
440
438
434
433
435
431
414
396
385
380
376
364
345
333
334
338
332
323
322
330
335
326
309
306
320
329
324
314
313
326
331
326
318
317
324
333
331
324
322
327
332
333
327
324
329
335
333
327
326
326
324
319
319
324
331
333
326
316
317
332
339
330
318
316
324
328
320
315
318
327
335
332
322
314
320
333
336
329
325
327
327
323
315
313
324
335
334
329
327
330
330
324
320
324
331
334
331
328
323
325
328
328
328
334
342
345
344
343
343
347
348
342
330
324
331
337
332
322
321
329
333
330
324
326
337
346
348
347
363
391
420
430
404
346
289
246
205
155
152
198
266
310
327
333
341
347
349
344
340
343
351
353
348
348
355
363
362
357
352
354
357
354
356
359
366
367
363
361
365
374
382
381
374
371
381
397
402
398
402
416
429
429
425
432
438
440
437
432
427
426
416
397
384
377
374
367
355
345
334
329
330
326
315
310
317
321
315
309
307
311
316
313
308
308
314
320
322
321
318
318
321
324
322
318
322
329
327
315
311
318
326
325
319
320
328
332
327
319
313
318
327
326
313
309
316
320
320
317
311
315
319
320
313
309
320
327
322
314
312
317
324
322
317
315
317
319
320
321
320
325
331
325
316
315
323
326
324
320
324
333
335
328
318
316
323
333
337
332
332
339
343
338
329
325
330
334
332
324
319
325
333
333
323
318
321
333
340
344
350
370
398
420
411
362
291
233
205
187
160
166
215
272
316
336
345
347
345
340
339
348
357
355
347
345
350
358
360
358
358
364
369
367
359
357
364
370
371
365
363
376
390
391
383
376
385
400
408
412
412
421
432
435
436
440
449
457
457
446
437
436
435
424
408
391
384
376
363
346
335
332
333
329
318
314
318
321
319
314
313
318
321
316
309
304
309
318
319
316
314
318
325
325
317
315
320
329
327
319
315
320
329
330
321
314
319
329
329
323
321
324
329
324
316
315
321
327
326
320
315
317
321
321
317
313
316
323
323
320
319
325
333
331
320
316
320
330
330
322
315
321
329
330
327
324
327
334
333
329
326
329
336
335
334
339
348
352
346
333
324
325
329
329
328
327
335
342
338
326
314
314
328
340
348
356
372
398
422
432
412
360
294
238
197
155
159
203
252
289
323
348
361
358
345
339
344
353
355
354
350
349
355
359
361
359
359
364
368
365
361
367
374
372
368
367
374
380
378
376
380
390
404
411
412
412
420
432
437
434
437
448
456
453
444
437
437
437
428
412
396
386
381
375
360
345
338
338
336
326
316
316
317
316
314
315
318
321
322
316
315
321
329
326
319
318
322
326
323
315
314
328
339
337
325
317
323
330
329
326
323
325
333
329
320
316
320
333
334
324
320
325
330
330
325
319
323
328
330
326
319
317
319
319
323
330
334
335
328
320
318
325
333
336
330
325
326
335
339
339
336
333
340
349
351
341
328
323
324
326
326
329
333
332
323
315
321
336
345
343
338
353
388
417
432
417
374
320
266
219
163
150
187
242
288
320
338
345
345
345
344
346
351
351
345
343
348
352
348
347
354
365
373
370
360
352
357
367
367
365
365
371
378
374
363
363
385
403
405
400
399
409
423
428
428
431
440
446
441
433
430
431
430
422
405
391
386
382
369
347
332
329
332
330
320
312
312
316
315
314
315
317
318
316
313
311
316
321
319
317
317
318
320
320
318
316
321
330
329
322
316
318
320
319
317
319
325
327
323
318
318
324
324
318
316
317
324
324
320
311
311
320
324
322
316
312
315
320
319
314
312
316
326
334
327
317
319
327
325
316
317
326
335
335
328
321
323
329
329
326
324
328
337
341
339
336
336
339
336
331
328
326
329
330
327
326
327
332
332
325
319
328
349
359
363
375
398
422
407
346
273
227
208
176
154
178
239
304
339
348
344
345
348
347
339
339
350
360
359
353
352
357
364
366
359
356
359
366
371
366
360
365
372
372
372
375
381
386
385
380
384
401
418
420
420
425
435
443
441
437
438
446
454
451
439
426
422
420
407
387
369
356
353
347
336
328
328
327
323
315
308
311
321
324
315
305
306
314
318
318
316
317
320
320
317
317
319
324
325
320
317
321
323
320
315
315
323
331
327
316
310
316
327
332
327
316
312
318
322
321
315
315
322
322
318
313
316
324
324
319
314
320
328
328
319
313
319
326
326
321
319
323
331
329
321
317
321
330
334
332
327
326
335
343
339
332
332
339
340
332
321
318
324
331
332
326
321
324
328
324
319
325
343
356
367
383
408
423
394
320
241
195
189
168
152
178
242
310
346
350
341
333
341
349
350
348
351
358
360
356
351
357
367
366
361
356
360
366
367
363
356
360
374
381
378
373
377
386
392
397
398
402
411
419
422
424
428
443
452
452
447
445
450
451
445
435
425
416
405
387
367
357
355
351
341
332
324
321
322
316
311
310
315
318
316
311
312
319
322
318
313
314
320
323
323
318
317
325
329
326
316
314
322
327
326
322
323
327
323
320
320
326
331
330
321
314
318
328
328
317
310
314
324
328
323
317
319
324
324
320
319
321
327
329
323
318
321
324
324
320
318
323
332
331
325
320
321
328
330
325
321
327
337
336
326
318
326
343
346
340
332
333
346
353
344
329
326
329
332
330
327
331
339
338
327
321
329
339
343
349
357
382
408
424
421
388
327
265
219
180
148
162
216
271
311
335
348
358
357
350
341
344
353
356
349
344
351
367
370
364
358
357
366
369
364
361
367
374
377
374
371
376
385
387
380
377
390
407
415
414
413
421
436
446
446
441
440
447
451
447
437
434
437
431
415
394
381
379
375
354
337
332
337
337
331
319
311
313
321
321
315
314
319
322
319
315
317
324
326
321
317
324
330
323
317
314
318
325
325
320
320
325
333
335
327
318
322
332
331
323
317
321
329
329
321
312
308
315
324
325
315
318
327
329
321
317
322
329
325
317
315
322
331
329
322
316
321
330
329
314
306
317
337
339
332
326
326
338
341
331
319
322
338
353
353
341
338
338
334
328
325
331
338
338
327
320
325
336
337
329
323
330
346
352
359
377
402
431
437
400
332
278
235
181
149
167
222
284
322
333
335
340
351
357
352
345
342
349
356
356
352
354
360
362
358
351
354
364
367
361
355
360
374
378
375
369
370
380
387
387
389
393
403
409
408
408
417
432
441
441
436
436
443
444
438
426
415
411
406
391
372
363
362
354
342
329
327
331
330
319
310
311
321
326
321
311
309
318
325
321
311
315
325
327
323
319
322
328
331
328
320
315
322
331
329
323
320
324
326
321
316
316
321
322
320
321
319
323
326
327
322
320
323
323
317
312
315
320
323
321
312
311
325
334
333
326
324
322
317
313
315
325
334
333
323
314
318
325
333
330
321
320
331
336
333
328
325
333
342
340
335
340
346
340
328
316
318
331
337
335
328
326
330
331
326
320
327
346
360
369
384
403
420
405
350
280
227
199
166
152
175
233
298
342
352
347
343
346
350
345
340
342
352
360
358
353
357
366
369
364
354
356
362
367
367
363
361
368
375
373
366
368
384
393
394
395
399
407
410
414
422
431
440
445
442
437
444
451
450
442
428
419
414
410
400
382
363
353
349
339
327
323
324
324
321
315
309
313
319
317
314
317
323
319
312
309
313
320
323
320
318
320
325
325
321
319
319
323
326
323
319
323
327
324
319
314
318
326
326
320
311
315
324
328
323
316
316
321
326
321
316
320
323
323
319
317
319
326
329
322
318
318
325
323
316
314
320
328
333
327
317
316
324
329
327
322
323
328
328
324
327
331
336
340
342
338
339
348
348
335
318
314
325
336
332
324
322
326
328
328
328
330
339
351
358
369
391
415
421
387
318
248
209
196
168
158
188
257
322
349
348
342
346
349
345
344
348
354
355
350
348
354
364
369
367
357
355
363
370
372
367
366
371
371
370
369
374
382
391
396
396
398
408
417
422
422
422
430
443
444
442
448
455
454
448
432
424
430
429
408
383
368
366
366
351
336
330
334
335
324
306
302
314
323
318
304
303
314
322
325
320
314
318
327
326
321
325
331
332
324
316
319
329
339
336
321
313
318
326
324
315
311
323
332
330
329
326
316
306
302
313
330
341
340
329
318
315
319
325
319
308
308
322
334
345
336
319
314
309
303
305
326
352
358
348
329
318
323
335
336
333
330
330
329
324
321
332
347
361
359
346
343
342
336
322
321
334
345
344
331
322
327
337
334
323
323
337
355
366
370
379
401
436
438
394
333
292
256
193
152
169
231
285
313
322
328
342
350
353
352
356
362
367
364
351
343
347
364
371
364
354
352
362
373
371
367
374
378
374
368
364
368
385
398
398
391
387
395
404
408
410
418
433
445
445
438
433
441
442
433
422
413
410
411
402
381
362
357
356
347
329
320
323
325
322
314
312
318
322
313
303
306
319
329
323
312
307
312
320
321
321
321
319
313
313
315
321
326
328
320
314
316
324
325
317
307
308
318
325
323
318
316
318
317
313
311
309
315
322
319
316
313
313
315
314
312
315
322
326
322
314
311
317
323
317
311
314
322
326
326
325
323
327
331
332
328
333
343
340
324
308
305
315
329
333
326
319
323
329
330
327
326
332
338
344
363
387
414
417
380
313
253
215
182
152
162
212
276
327
343
337
330
336
344
340
330
327
338
353
356
353
352
358
363
358
351
352
364
373
367
358
359
366
372
366
359
357
366
381
391
395
400
405
413
416
417
421
428
433
435
441
447
453
446
434
426
422
420
413
393
372
361
359
353
341
327
317
318
318
312
305
313
322
320
310
306
307
317
324
319
311
306
312
320
318
313
315
322
327
329
325
318
319
324
321
315
315
319
324
328
324
316
317
319
316
313
318
324
327
322
313
312
317
321
324
315
312
319
324
324
319
319
326
329
323
313
313
321
327
326
319
316
321
328
326
320
320
328
333
332
326
323
331
341
345
337
331
341
352
347
327
311
314
327
335
330
323
325
330
330
328
326
333
341
347
359
385
414
429
404
335
253
209
197
168
148
179
249
314
343
341
335
341
350
353
348
342
345
356
362
358
351
350
359
365
366
368
370
371
368
360
360
370
377
377
371
368
375
390
399
400
393
396
406
416
428
436
443
446
443
442
448
457
456
446
437
430
428
420
403
386
375
365
357
351
343
337
335
327
316
308
309
319
325
321
309
304
313
320
320
312
310
318
326
324
320
323
327
329
325
320
319
322
327
324
322
327
333
329
317
309
312
323
331
330
325
325
326
322
315
309
315
327
333
325
317
316
323
325
321
315
314
320
326
326
321
318
322
329
329
325
325
326
328
323
317
315
325
337
339
330
320
323
329
328
323
327
343
