ecgdat
340
336
345
347
338
332
338
346
346
337
331
337
346
347
337
333
337
347
348
339
334
337
347
348
338
335
337
345
346
338
333
337
346
347
338
333
337
346
349
343
339
343
351
351
342
338
342
351
351
341
336
343
354
352
342
335
340
350
350
340
332
335
344
347
338
332
337
346
346
337
331
336
346
347
338
332
336
348
353
350
355
371
388
398
395
390
386
378
359
330
310
307
312
313
311
313
324
338
341
332
329
336
345
345
334
329
335
344
344
335
333
341
350
349
339
333
338
347
347
340
335
340
348
348
339
334
340
352
352
342
337
343
352
352
342
338
343
355
357
348
342
347
356
355
346
340
342
350
348
340
337
343
351
347
334
330
337
345
342
330
324
330
340
340
331
327
332
342
341
331
327
332
342
342
332
328
333
342
341
332
329
334
344
343
333
329
335
344
343
333
328
334
343
342
333
330
335
344
344
334
330
336
345
343
333
330
336
345
344
334
331
337
345
344
333
330
336
345
344
335
330
336
347
345
334
331
336
346
344
334
330
337
345
344
335
332
339
347
345
336
333
339
347
346
337
332
337
346
345
336
332
338
347
346
336
333
339
348
346
336
333
340
348
347
337
333
340
348
345
336
332
339
349
346
336
333
338
348
345
336
333
339
347
346
335
332
340
349
348
341
339
344
352
351
341
337
344
352
349
340
337
345
356
351
339
335
343
352
349
338
332
337
344
343
334
331
338
346
344
335
332
338
345
344
334
332
339
349
349
345
351
368
386
393
391
391
392
385
363
333
315
310
313
310
306
309
321
336
336
328
328
336
345
342
333
331
337
345
342
333
334
342
351
347
336
334
341
349
346
337
335
342
349
346
337
335
342
353
352
343
340
346
353
351
341
338
345
355
354
346
344
351
357
354
345
343
346
351
346
337
336
345
352
346
333
331
339
348
341
329
328
336
343
340
331
329
336
343
340
332
330
337
345
342
332
331
338
345
342
331
329
337
347
342
332
330
339
347
342
332
331
338
345
341
332
331
338
346
342
332
330
338
346
341
332
332
339
347
342
332
331
339
346
342
333
333
339
346
342
333
332
340
347
342
332
331
339
347
342
333
332
339
346
342
333
332
341
348
343
333
332
339
346
342
334
333
340
347
343
334
333
341
348
344
335
333
341
348
342
333
334
342
349
343
333
332
341
348
342
334
334
342
349
344
334
333
342
349
344
335
335
342
349
343
334
334
342
348
343
337
340
347
352
347
338
339
347
353
347
337
337
345
355
348
338
337
345
352
346
337
336
341
347
341
332
333
341
347
341
332
332
342
347
342
332
333
343
350
347
343
351
369
385
387
387
393
399
392
369
339
320
315
314
307
303
310
324
335
334
328
329
340
346
340
332
334
342
347
341
333
335
346
352
346
336
337
345
352
344
337
338
345
351
344
336
336
345
352
348
340
340
349
355
348
338
340
348
354
350
344
345
352
357
350
343
344
349
352
344
335
337
346
351
343
332
333
342
348
339
328
328
338
343
336
328
330
339
344
336
329
330
338
343
337
329
329
338
343
337
328
330
340
344
337
328
329
339
344
338
330
333
341
344
337
330
332
341
346
339
331
332
342
346
339
330
332
341
347
338
330
331
341
346
338
330
332
341
346
338
331
333
341
346
340
332
332
341
345
338
331
334
343
347
339
331
333
343
347
340
332
334
344
347
339
332
335
345
349
339
332
335
344
349
342
333
335
344
348
341
333
336
345
348
340
333
335
344
348
340
333
336
345
349
342
336
337
345
349
341
333
336
345
349
341
333
335
346
349
341
336
342
351
354
345
340
341
351
354
345
337
340
350
356
348
338
339
348
352
344
336
338
345
347
338
332
335
344
348
339
334
336
345
348
340
334
338
346
349
343
340
350
369
382
382
384
393
403
397
371
343
327
322
316
304
299
307
323
332
328
324
330
342
345
337
330
333
342
345
337
331
336
348
351
343
336
338
347
349
340
334
337
346
349
340
335
339
348
350
345
339
341
350
352
343
337
340
350
352
345
341
347
355
356
347
341
344
353
352
342
335
340
349
352
341
331
333
343
346
336
329
331
339
342
335
329
333
341
343
334
328
332
341
343
333
328
332
341
344
335
329
333
343
345
336
330
334
344
345
336
330
335
344
345
336
330
334
342
344
335
330
334
343
344
336
330
335
345
345
335
331
336
346
346
335
330
334
344
346
337
331
336
345
346
336
331
336
345
345
336
331
336
345
345
336
331
337
346
346
337
332
337
346
346
337
333
338
346
347
338
333
337
346
346
337
333
338
347
347
337
332
337
347
347
338
333
338
346
346
336
333
339
348
348
338
334
339
348
349
339
334
338
347
347
338
334
339
348
347
338
335
343
353
352
342
338
343
352
351
342
338
343
352
353
346
340
343
351
351
342
338
342
348
346
336
333
339
348
347
336
332
338
347
347
336
333
338
347
347
339
337
349
369
378
378
382
396
408
400
374
351
336
329
317
303
299
311
325
330
325
326
333
343
343
334
330
335
345
343
334
330
336
347
347
338
336
341
350
347
336
334
341
351
349
338
334
339
349
347
341
339
346
354
352
342
338
344
353
350
342
341
350
358
354
343
340
347
356
351
339
335
341
350
348
339
334
337
345
344
334
328
332
340
339
330
327
335
343
340
331
328
335
343
340
330
329
334
342
339
330
328
336
343
340
329
327
334
344
341
331
329
336
344
341
331
329
337
344
341
331
330
337
344
341
332
331
337
345
342
333
329
338
345
342
332
330
336
344
341
332
330
339
347
344
334
332
339
347
344
335
332
338
346
344
334
331
338
346
343
334
331
338
347
343
334
332
340
347
343
333
331
339
347
343
334
334
341
349
344
334
333
340
348
344
335
334
341
349
343
334
333
341
350
345
334
333
340
349
345
336
333
340
349
344
335
334
341
349
346
336
335
345
353
350
340
338
346
353
348
339
338
346
353
349
343
342
348
353
347
337
336
345
352
344
334
333
342
348
344
334
333
342
349
344
334
334
342
349
344
336
337
351
366
371
372
380
397
410
401
379
359
345
334
316
301
299
310
323
324
321
325
335
344
340
332
331
340
346
342
332
331
339
348
345
337
337
345
351
345
337
336
344
349
345
336
335
342
349
344
337
338
348
354
347
339
339
348
354
348
340
343
354
359
352
344
345
353
358
349
338
338
346
352
347
338
336
341
346
341
332
331
337
342
336
328
328
337
342
337
328
329
338
343
338
330
329
338
343
337
329
330
339
344
338
330
330
339
345
338
330
330
340
345
338
330
331
339
344
339
331
331
339
345
339
331
332
340
346
340
332
332
340
345
340
332
334
342
347
339
332
334
343
347
339
332
334
342
346
340
333
334
342
348
341
333
335
344
348
340
332
334
343
347
340
333
335
345
349
341
332
334
343
348
341
333
336
344
349
343
333
335
343
348
341
333
335
343
347
340
333
334
343
349
341
333
336
344
347
340
332
335
343
349
342
334
335
344
348
341
334
336
347
354
347
339
340
349
353
346
338
339
348
352
344
341
344
351
352
344
337
340
348
350
339
330
333
343
348
340
333
335
343
347
340
332
335
344
349
341
334
338
350
361
363
366
377
394
406
398
381
365
354
340
317
301
299
310
320
319
317
325
337
342
336
330
333
342
345
337
330
334
343
347
341
335
338
347
350
342
335
337
347
350
342
335
338
347
349
341
335
341
352
356
346
338
341
350
353
345
338
344
354
358
349
343
345
353
356
347
338
340
348
351
342
336
338
344
346
338
333
335
341
342
334
327
329
340
343
334
327
332
342
343
334
327
331
341
345
336
329
331
341
344
336
329
332
341
344
336
329
331
341
343
334
329
333
342
343
333
328
332
342
344
334
329
332
341
343
335
331
333
342
345
337
330
334
343
345
336
329
333
343
345
335
330
336
344
346
337
331
335
345
346
337
332
335
344
346
337
331
335
345
346
337
331
336
345
346
338
333
337
345
346
337
332
337
346
346
337
332
337
346
347
338
331
336
345
346
337
332
336
346
348
339
334
339
347
347
337
334
338
347
347
337
332
337
346
348
339
333
337
348
352
344
338
342
351
351
342
337
342
351
351
342
341
346
352
351
341
337
343
351
351
339
332
337
347
348
337
332
338
349
348
338
333
338
346
347
338
334
340
352
358
358
364
379
398
406
398
385
374
364
344
318
303
303
313
318
315
316
326
339
340
334
332
337
345
344
334
329
334
344
344
338
335
341
349
349
339
335
340
351
350
339
334
339
348
347
339
334
343
354
354
344
337
343
353
353
343
338
344
356
357
347
343
348
357
355
345
338
342
349
348
339
337
342
349
344
334
332
337
342
340
329
325
333
342
341
331
327
332
342
342
331
327
333
343
341
331
328
334
343
341
332
329
335
344
342
332
329
334
342
340
331
328
335
343
342
333
329
334
343
342
334
330
337
346
343
333
330
336
345
343
334
331
337
346
344
334
331
338
346
343
333
330
337
346
344
334
331
337
345
343
334
331
337
346
343
334
332
338
347
344
334
332
338
348
345
335
333
340
348
344
335
332
339
346
344
333
332
338
347
344
335
332
339
347
343
334
331
338
348
344
335
333
339
347
345
335
333
339
347
344
335
333
339
347
345
336
334
341
350
351
342
340
346
353
350
341
338
345
352
348
339
340
348
355
351
339
337
344
352
349
337
332
338
347
344
335
333
339
347
344
336
335
341
348
344
336
334
342
351
353
352
360
376
394
399
395
389
383
372
348
320
305
306
314
314
311
315
327
339
338
331
331
338
346
342
333
331
338
345
341
334
335
343
351
346
337
335
342
350
346
337
336
343
349
345
335
335
345
355
351
341
339
347
354
350
341
341
348
358
355
345
343
350
358
353
343
340
346
352
348
339
338
346
351
345
336
333
340
345
339
328
327
336
343
339
330
329
337
344
340
331
330
338
344
339
329
329
338
345
341
332
331
337
344
340
331
330
338
344
340
330
331
338
345
340
331
330
338
345
341
332
331
339
346
340
332
333
339
345
340
332
332
340
346
341
332
331
340
348
341
333
333
341
348
342
333
333
341
346
341
333
333
341
347
341
333
333
342
348
343
334
333
341
349
343
333
332
340
346
341
332
332
340
346
341
333
334
342
349
343
335
334
342
347
342
334
334
342
349
343
334
334
342
348
342
333
334
343
348
343
334
335
343
349
342
334
335
343
349
346
340
340
347
353
347
338
339
347
353
347
338
339
350
357
348
337
338
346
352
345
336
334
342
348
342
334
335
343
349
342
333
333
342
347
341
333
333
343
352
349
348
359
377
391
393
393
393
391
379
352
324
310
311
313
308
306
314
328
339
335
328
332
342
348
340
331
333
343
347
340
333
337
346
351
344
336
338
346
352
344
335
336
345
351
344
336
336
347
355
349
340
340
349
354
347
340
341
349
356
351
345
347
353
357
349
341
343
349
353
346
337
339
348
351
341
331
334
343
346
336
327
329
340
344
335
326
329
339
345
337
328
331
340
344
336
328
330
340
343
336
329
331
340
344
337
329
331
340
344
337
329
331
341
345
337
329
332
341
345
337
330
331
341
345
337
329
332
341
345
337
331
333
342
345
337
330
333
343
347
339
331
333
342
346
338
331
334
343
347
338
331
333
342
347
337
330
333
342
346
339
332
335
344
348
339
332
334
343
347
340
333
335
344
348
339
333
336
345
348
339
333
336
345
347
339
332
335
345
348
340
333
336
345
349
340
333
336
345
347
339
332
335
344
347
338
332
336
346
348
342
338
341
350
352
344
337
341
350
352
342
336
340
352
355
345
335
339
349
352
343
336
336
344
346
339
332
334
344
348
337
331
335
344
349
339
333
336
346
351
345
344
356
375
387
387
389
395
397
384
357
329
317
315
313
303
303
314
329
336
331
326
334
344
345
335
329
333
342
344
336
330
337
348
351
342
333
337
346
348
340
334
338
347
349
339
333
337
347
352
344
338
342
350
352
344
338
341
351
353
347
342
345
354
355
347
340
344
350
350
340
335
340
351
352
339
331
335
346
347
335
327
330
340
341
333
327
331
341
342
334
328
333
341
343
333
328
333
342
343
334
328
333
342
343
334
330
335
343
343
334
328
333
343
344
336
330
335
344
345
335
330
334
344
345
335
330
335
345
345
336
330
335
344
344
335
329
335
343
344
335
331
335
345
347
337
331
336
345
345
335
330
336
345
345
336
332
337
346
347
338
332
337
346
346
338
332
336
345
345
336
332
337
347
347
337
332
337
347
347
337
333
337
346
346
337
333
337
346
346
337
334
338
347
346
337
332
338
348
347
337
333
338
348
347
336
332
338
347
346
339
337
345
354
352
343
338
343
352
352
342
337
342
353
355
344
338
342
350
350
342
338
341
347
345
336
333
338
348
347
338
334
340
348
347
336
332
339
350
348
341
342
356
375
384
384
388
398
402
388
360
336
323
319
311
300
301
313
329
333
328
326
335
344
343
334
332
337
345
343
333
330
338
349
348
339
335
341
350
348
337
333
340
349
347
338
334
340
349
350
341
339
344
352
350
341
338
343
352
351
344
344
350
359
356
345
342
348
354
350
339
335
342
352
350
337
332
337
347
345
333
327
332
341
339
330
329
334
342
340
331
326
333
344
341
331
328
334
342
340
331
328
336
345
343
333
330
336
344
342
334
331
337
345
343
334
331
337
346
343
333
330
337
345
342
333
331
339
346
343
333
331
337
346
343
334
331
337
345
342
333
330
338
347
344
334
331
338
347
344
335
332
339
347
344
334
332
339
347
343
334
333
340
348
345
336
332
339
347
344
334
331
339
347
344
334
332
339
348
344
335
333
340
347
344
335
332
340
348
345
336
333
340
348
346
337
334
341
348
345
335
334
342
349
345
334
332
340
348
345
336
337
346
353
350
341
338
346
354
350
339
337
344
352
352
342
339
344
352
349
340
339
344
348
343
334
332
340
347
343
334
332
339
347
343
334
333
340
348
344
337
339
354
372
379
379
385
399
405
391
364
342
330
323
311
300
301
313
327
329
324
326
336
347
342
332
330
337
345
341
331
329
339
349
347
338
338
344
351
346
336
334
341
349
345
336
335
342
350
346
340
341
349
356
350
340
339
347
354
349
342
344
352
358
354
345
342
350
356
349
338
337
345
353
348
337
334
340
347
344
332
328
335
342
338
329
328
336
344
339
330
329
337
344
339
329
329
337
343
339
330
330
338
344
339
329
329
337
344
340
330
330
338
346
341
333
330
339
346
341
331
331
339
345
339
330
330
339
345
340
331
331
340
346
341
332
332
339
346
342
332
332
340
347
341
331
333
340
347
342
332
333
341
347
341
333
332
341
347
341
333
333
341
347
341
333
332
340
347
342
332
333
341
347
341
332
333
341
348
343
335
335
343
349
343
334
334
342
348
342
334
334
342
349
343
334
334
342
348
342
332
333
341
348
342
335
335
343
348
343
335
337
347
354
348
339
338
347
353
348
338
339
349
354
349
342
340
346
352
347
338
338
345
348
341
333
333
341
347
342
334
334
342
348
342
334
335
343
349
342
335
339
353
369
374
375
385
400
407
394
369
351
338
328
312
299
299
313
325
325
321
325
336
345
338
330
331
340
345
338
329
330
340
349
345
336
337
344
350
343
336
336
344
349
343
335
336
344
349
343
337
340
349
354
347
338
339
348
353
347
340
343
352
358
351
343
343
351
356
348
337
337
346
352
345
337
335
341
347
341
332
330
337
341
335
327
329
338
343
336
329
332
339
343
337
329
330
339
344
338
330
331
339
345
338
330
332
340
344
337
330
332
340
345
337
330
331
340
345
337
329
330
339
345
338
330
331
340
345
338
330
331
341
346
338
331
333
341
346
339
332
335
343
346
339
332
334
344
347
340
332
334
342
346
339
332
333
342
345
340
332
334
342
346
339
332
334
342
346
340
332
334
343
348
341
334
336
344
349
341
333
336
344
347
340
333
335
343
348
341
334
337
345
349
341
333
335
344
349
342
334
335
344
349
341
334
336
345
348
340
334
337
349
354
347
339
341
349
353
345
338
340
349
354
347
342
344
349
352
345
337
340
349
350
339
331
334
343
347
340
333
336
346
348
340
333
334
343
347
340
334
339
353
365
367
369
381
399
408
396
375
358
346
333
313
300
300
312
322
322
320
327
339
344
337
331
333
341
345
335
329
331
341
347
341
335
337
346
348
340
335
338
346
350
342
335
337
347
350
343
338
342
351
355
346
338
341
351
354
346
340
345
355
357
349
342
345
354
357
347
338
340
348
351
343
336
337
344
347
339
333
334
340
342
333
327
330
340
342
334
328
330
339
343
336
329
332
341
344
335
328
331
340
343
335
329
333
342
345
337
332
335
343
345
336
330
334
343
345
337
330
334
343
345
337
330
334
344
347
338
332
335
344
346
338
331
334
342
345
337
331
335
344
347
338
332
336
346
348
339
332
336
344
347
338
333
336
345
346
338
331
336
345
346
338
332
337
346
347
339
332
336
345
348
340
333
336
345
348
338
332
336
346
347
339
334
338
347
348
339
332
336
345
348
338
333
337
346
348
340
334
337
347
348
339
333
337
346
348
339
334
339
349
353
344
338
341
350
351
343
337
341
350
352
343
341
345
351
351
342
337
340
350
350
337
330
335
345
345
336
331
336
345
346
337
331
336
344
346
337
331
339
352
362
363
367
380
399
406
396
378
365
354
337
314
300
302
313
319
317
318
327
338
340
334
329
334
343
345
335
329
334
343
346
339
335
340
350
349
339
334
339
348
349
340
335
338
347
347
339
335
342
353
353
344
339
343
352
353
344
339
346
357
358
348
343
347
355
355
344
338
341
350
350
342
338
341
348
346
336
331
334
341
340
332
327
332
340
340
331
327
332
342
342
333
328
332
341
342
334
329
334
342
343
333
330
333
342
343
333
329
334
342
342
334
330
334
343
343
334
330
336
344
343
333
328
334
344
344
334
329
335
344
343
334
330
336
345
345
335
330
335
344
344
335
331
335
344
344
335
330
335
345
344
335
331
336
345
345
337
334
338
346
345
336
331
337
346
345
335
332
338
347
346
336
331
337
348
347
337
333
338
346
345
336
332
338
346
345
336
333
339
347
346
337
333
338
347
346
337
334
340
348
347
337
334
340
347
345
336
333
339
350
351
342
338
343
351
351
342
338
342
352
352
342
339
346
353
350
339
336
341
351
349
337
332
337
346
345
337
333
339
347
346
337
335
340
349
346
337
333
341
353
357
356
363
380
398
404
396
384
373
362
341
316
302
305
313
317
315
317
328
339
339
333
330
337
346
345
335
330
336
345
344
337
336
342
349
347
338
336
342
349
347
339
336
341
350
348
338
335
344
355
353
342
338
344
353
351
341
338
347
358
357
346
341
347
356
355
345
338
341
349
348
340
337
342
348
345
334
331
337
343
338
328
325
333
342
339
330
327
334
342
339
329
328
335
343
342
332
329
335
343
340
332
328
335
343
341
332
329
336
344
342
333
332
337
345
342
332
331
337
345
342
334
331
337
344
342
332
330
337
346
343
334
331
337
344
342
333
331
338
345
342
333
331
338
346
343
334
332
338
347
343
334
332
339
348
345
336
333
338
346
344
335
333
340
347
344
335
332
340
347
343
334
334
341
348
344
335
333
339
348
344
335
333
340
348
344
335
333
340
348
345
335
333
340
349
345
335
333
341
349
344
335
334
340
348
346
336
334
341
350
350
341
338
345
352
350
340
338
345
353
350
340
340
348
354
349
339
338
345
353
348
335
332
338
347
344
335
333
341
348
344
335
333
339
348
345
335
334
342
352
354
354
363
379
395
400
395
388
382
371
347
320
305
307
313
313
310
315
328
340
337
330
331
339
345
341
331
330
338
345
341
334
336
344
351
345
335
334
342
349
345
335
335
342
349
345
336
335
344
353
350
340
338
346
353
349
340
338
346
357
355
345
343
349
356
352
343
340
345
351
347
337
336
344
348
342
333
332
339
345
337
327
328
335
342
336
327
327
336
343
339
330
330
338
344
338
329
328
338
345
341
331
331
338
345
340
330
330
338
346
341
331
331
339
345
340
333
331
338
345
340
333
330
338
345
340
331
331
340
347
341
332
333
341
347
341
332
333
340
346
342
333
334
341
347
341
332
333
342
348
342
332
332
340
347
342
334
333
341
347
342
333
333
341
347
341
335
334
342
348
343
335
334
342
348
343
334
334
342
348
342
333
334
343
349
342
332
332
341
347
342
334
335
343
348
343
335
336
344
348
343
334
334
342
348
343
334
335
343
349
346
339
340
348
353
347
339
340
347
352
345
337
339
350
355
347
337
337
346
352
346
336
334
341
348
341
332
333
343
348
342
333
334
343
348
342
334
334
343
351
348
348
358
378
391
394
392
392
388
375
348
321
309
310
313
310
308
316
329
338
334
329
332
342
347
340
331
332
340
345
339
334
337
346
349
342
335
336
345
349
342
334
336
346
351
344
336
337
347
354
348
341
342
348
353
346
339
340
349
356
352
344
345
352
357
350
342
342
348
351
343
337
339
347
350
340
331
333
342
345
335
326
328
337
342
335
328
330
339
343
335
328
331
339
343
336
329
330
338
343
336
330
332
340
344
337
329
332
341
345
337
330
332
341
345
338
329
332
341
345
339
331
332
341
345
339
331
333
343
346
339
332
334
342
346
338
331
333
342
346
339
332
334
343
347
339
331
334
343
347
339
331
333
343
347
339
332
334
343
347
341
332
335
342
346
339
332
334
344
348
339
332
334
344
347
341
333
335
344
347
340
333
336
345
349
340
334
336
343
347
340
333
337
344
348
340
333
335
344
348
339
333
335
344
346
339
332
335
344
348
342
338
342
351
352
343
337
340
349
353
345
339
340
352
356
346
337
339
348
352
344
336
336
343
345
337
331
333
344
346
338
331
334
343
348
339
333
336
344
349
344
345
357
376
388
389
389
394
396
383
354
328
314
314
313
305
303
314
329
337
332
329
334
343
345
336
330
333
342
346
338
332
338
349
351
342
335
338
348
348
340
334
338
347
350
340
334
338
348
352
345
339
342
352
354
345
338
341
351
356
350
346
347
355
356
348
341
344
350
351
342
338
341
348
351
338
332
335
344
345
334
326
330
340
342
334
328
332
341
342
334
328
332
341
344
335
328
332
341
343
334
328
331
340
342
335
330
333
342
344
335
330
333
342
344
335
331
334
342
343
335
330
334
342
344
335
330
334
342
345
337
330
334
344
345
336
330
335
344
346
338
333
337
345
345
337
332
335
344
345
337
332
336
345
346
338
333
336
345
347
338
332
337
346
347
338
332
337
345
347
338
334
338
346
346
337
333
336
346
346
337
331
336
345
346
337
332
336
346
348
338
333
337
346
346
337
333
337
346
346
336
332
336
346
346
338
333
338
347
348
340
336
343
353
353
342
337
341
351
352
342
337
342
352
355
344
337
342
350
351
342
338
339
345
345
337
333
338
347
347
337
332
337
346
346
337
332
338
347
348
341
342
356
375
385
385
388
397
401
387
358
333
320
318
312
302
302
314
329
334
329
326
334
345
345
334
329
335
344
343
335
331
339
350
349
339
334
339
348
348
339
335
340
349
348
339
334
340
350
351
342
339
344
353
352
343
338
343
351
352
346
344
348
357
355
347
342
347
353
349
339
336
342
350
349
337
330
335
345
345
333
326
332
342
340
330
327
333
342
341
332
328
334
342
341
333
328
334
343
341
332
328
333
342
341
333
329
335
344
342
332
331
336
344
342
334
331
337
345
343
334
331
336
345
343
334
331
338
346
344
335
331
337
347
344
335
331
337
347
344
335
330
336
345
344
334
332
337
346
344
333
331
337
346
344
335
332
338
347
345
336
333
339
348
346
336
332
339
348
345
334
332
338
346
344
336
333
339
347
344
335
332
338
347
346
336
333
338
347
346
337
334
339
348
345
336
334
342
349
346
338
334
339
348
345
337
334
339
347
345
336
337
345
354
351
341
338
345
354
351
341
338
344
352
352
343
338
344
352
350
341
338
342
348
344
335
333
339
348
346
336
333
339
348
345
336
335
341
348
346
339
340
355
373
381
381
387
400
406
391
363
339
329
324
313
301
301
313
328
331
326
327
336
346
343
333
331
337
345
341
332
330
339
350
348
341
336
342
350
347
338
335
341
350
347
338
336
342
349
347
340
341
347
354
351
343
341
347
354
351
344
344
350
358
354
345
343
349
355
349
338
336
344
352
350
337
332
338
347
343
333
328
333
340
338
330
329
335
342
339
330
329
336
344
339
330
330
337
344
340
331
330
337
347
342
332
330
336
344
341
332
330
337
345
342
332
330
337
345
340
330
330
339
345
341
331
331
339
346
341
331
329
337
345
342
332
332
338
346
341
333
332
339
346
342
332
331
339
347
343
333
332
339
346
341
333
332
340
346
342
333
332
340
347
342
333
332
339
347
343
335
334
340
347
343
334
334
341
347
343
335
334
341
348
343
333
333
340
348
343
335
334
341
347
343
333
332
341
348
343
334
333
340
346
341
333
333
341
347
343
334
336
345
353
348
338
338
346
352
347
339
338
346
352
350
342
339
346
352
347
339
338
344
348
342
333
333
342
348
343
334
333
340
348
344
334
333
341
347
342
336
339
354
370
374
377
385
400
408
394
368
348
336
327
313
299
300
314
327
327
323
327
336
344
339
331
332
339
345
339
331
333
341
350
346
336
335
343
349
344
336
336
344
349
344
336
336
344
349
344
338
341
348
353
347
339
339
347
353
348
340
343
352
358
351
343
343
350
355
346
336
337
347
351
345
336
334
341
346
341
332
330
336
341
336
327
328
337
342
336
328
328
337
343
337
329
330
338
343
337
329
329
338
344
338
331
331
339
344
338
329
330
340
346
339
329
330
338
345
339
330
331
340
345
338
330
332
340
345
339
331
332
341
346
340
332
333
341
346
340
332
334
342
347
340
332
333
344
348
341
333
334
343
348
341
333
333
341
347
341
333
334
343
348
342
333
334
342
346
340
332
333
343
348
341
333
334
343
349
342
334
336
344
348
341
333
337
345
349
341
333
335
343
348
341
333
335
344
349
341
333
334
344
348
341
333
334
343
348
341
334
336
347
354
347
339
340
349
352
345
337
340
350
354
347
342
342
348
351
345
338
341
349
350
340
332
335
344
349
341
334
336
345
349
341
334
335
344
350
343
335
340
354
368
370
373
383
399
408
395
372
354
343
330
311
299
301
315
324
322
320
327
338
343
337
331
334
341
345
337
331
333
343
349
344
337
338
346
351
343
336
338
348
350
342
336
338
346
349
341
338
342
350
353
345
339
342
350
353
345
340
345
356
359
351
344
346
354
356
346
337
339
349
352
343
336
337
343
347
339
333
333
340
343
334
327
329
338
342
335
328
331
339
342
333
327
331
341
344
336
330
333
341
343
335
329
333
341
344
337
330
333
342
345
336
328
333
342
345
336
329
333
342
344
337
331
333
342
345
337
331
334
343
344
336
330
334
343
345
337
331
335
344
346
338
331
334
343
346
337
331
335
343
345
336
330
335
344
346
338
332
336
344
346
337
331
336
346
348
339
331
335
345
347
338
333
337
346
347
338
332
336
345
347
338
332
337
344
346
338
333
336
345
347
338
333
337
346
348
339
333
338
347
348
339
333
337
345
348
339
333
337
349
352
344
338
341
350
352
342
337
341
351
352
344
341
344
350
350
341
336
341
351
349
338
331
337
347
347
338
333
337
346
347
339
334
337
346
347
339
334
340
354
362
364
369
382
399
407
396
377
364
351
334
312
300
302
314
322
320
320
329
341
343
336
332
336
344
344
335
330
335
344
347
340
336
340
348
348
340
335
339
348
348
339
336
339
349
349
340
337
345
354
354
344
340
345
353
353
344
340
347
358
358
348
342
347
356
356
344
337
340
350
351
341
337
342
348
345
336
331
336
341
340
331
327
333
342
341
332
327
332
341
342
332
328
332
341
341
331
328
333
342
342
332
328
334
343
343
334
330
335
343
342
332
328
335
344
344
335
331
335
343
343
333
329
335
343
343
334
329
335
344
343
335
331
336
344
343
335
330
337
346
343
333
329
335
345
344
335
331
337
345
344
336
331
336
345
345
336
332
337
345
345
335
331
337
346
345
334
331
337
346
343
334
331
337
345
343
334
332
339
346
344
336
333
338
347
346
336
331
337
346
345
335
332
338
348
346
336
333
338
347
346
337
333
339
347
346
336
334
339
350
351
343
339
343
352
351
341
337
342
351
350
340
339
347
353
350
340
336
342
350
347
335
331
337
346
345
336
333
339
347
346
336
332
338
347
345
335
332
341
354
358
358
365
381
398
403
394
382
371
360
339
314
300
303
312
316
313
316
328
340
340
332
331
338
346
343
333
331
337
346
344
337
336
344
351
348
338
335
342
350
348
338
336
342
351
347
337
336
345
355
352
343
340
347
354
352
342
340
348
359
357
348
344
350
357
355
345
340
345
353
350
341
339
344
349
344
335
334
340
344
339
329
328
335
344
341
332
330
336
343
339
331
329
336
345
341
331
329
336
344
341
331
329
335
343
339
330
329
337
344
340
331
329
337
345
341
332
330
336
345
341
332
331
338
346
343
333
332
340
346
342
332
332
339
347
343
333
331
337
345
342
333
331
338
346
343
335
333
339
346
341
333
332
340
346
342
333
332
339
348
344
335
333
339
346
343
335
333
341
347
343
333
332
340
348
343
334
332
341
349
344
333
332
339
348
343
335
334
342
349
345
335
335
342
348
344
335
334
342
349
343
334
333
342
349
343
335
335
342
351
349
341
340
347
353
347
338
337
345
352
348
339
339
349
354
347
337
337
345
352
346
335
331
338
347
341
333
333
340
347
342
333
332
340
348
342
333
333
342
351
352
352
363
381
396
399
393
388
381
368
342
316
304
308
314
312
310
316
329
340
337
329
331
339
346
340
331
332
339
345
339
333
335
344
350
344
335
335
344
351
345
336
336
344
350
344
335
336
347
355
349
340
340
348
353
348
339
339
349
357
353
344
343
350
357
352
342
339
345
351
346
337
338
346
350
341
333
333
342
346
337
327
328
337
343
337
328
329
336
342
337
329
330
338
343
337
329
330
339
344
338
329
329
338
344
338
329
330
338
344
338
329
331
340
345
340
330
332
340
345
338
330
331
340
345
338
331
332
340
345
339
332
332
340
344
338
332
333
342
347
341
332
332
341
347
340
332
334
342
349
341
332
333
341
348
341
333
334
342
347
340
333
334
343
348
341
333
334
343
348
341
333
335
342
348
341
333
334
343
348
341
333
336
344
349
341
333
336
344
349
342
334
335
343
349
342
334
335
345
348
341
333
334
343
349
341
333
335
343
349
344
339
340
348
353
345
339
340
347
352
345
337
339
350
355
345
336
337
347
352
345
336
335
343
348
341
335
336
343
347
340
332
334
343
347
340
334
335
345
352
349
349
361
380
393
394
393
392
389
374
346
320
309
310
313
308
306
315
329
337
333
328
333
342
346
337
330
332
343
347
339
333
338
347
351
343
336
337
345
350
343
335
337
347
350
342
335
337
348
354
347
340
342
351
354
346
338
341
351
357
351
344
346
354
358
350
344
345
349
351
345
337
340
348
350
339
331
334
345
346
336
327
329
339
342
335
329
331
340
343
335
328
331
340
344
339
330
332
341
344
337
330
332
341
344
335
328
332
342
345
336
330
333
341
344
336
329
332
341
345
338
331
333
342
345
336
330
333
342
345
337
330
334
342
345
336
330
333
343
345
337
330
334
342
346
339
332
335
343
346
337
331
334
344
346
338
331
335
344
348
340
334
336
345
347
338
331
335
345
347
338
332
336
345
347
338
332
336
345
348
339
333
336
346
347
339
333
336
345
347
338
332
336
347
348
339
332
336
345
348
339
333
336
345
348
340
333
336
345
348
342
338
342
351
353
343
337
341
351
353
344
337
341
353
355
345
337
340
349
351
342
336
337
345
347
338
333
337
346
347
338
333
336
346
348
338
331
335
345
349
344
344
357
378
388
389
391
396
396
380
350
325
314
314
312
304
304
315
331
337
331
326
332
343
345
336
330
334
345
345
335
330
337
348
350
340
335
339
347
348
339
335
338
347
348
340
334
337
347
352
343
338
342
351
351
343
338
342
350
352
346
342
347
355
356
346
341
344
350
349
341
336
341
350
350
337
330
334
346
347
334
326
331
341
343
334
328
332
343
342
333
329
332
340
341
333
329
333
342
342
332
327
332
342
343
334
329
333
342
343
334
329
334
345
343
333
329
334
343
344
335
330
335
344
345
335
330
335
345
345
335
330
335
343
344
335
330
336
345
345
335
330
335
344
344
336
331
337
345
345
336
331
336
345
345
337
332
337
344
345
336
331
336
346
346
336
332
336
345
345
337
332
338
346
346
337
333
338
346
346
336
333
338
347
347
338
334
338
347
346
337
333
338
347
347
338
334
340
349
346
336
333
338
347
346
337
334
339
349
348
340
338
345
354
353
342
337
343
352
352
342
338
342
353
355
343
337
342
351
351
341
336
339
345
344
335
331
338
347
346
336
334
340
348
347
337
333
340
348
348
341
343
359
379
388
386
390
399
402
385
356
332
321
319
312
302
304
316
330
333
328
327
335
345
343
334
330
336
345
342
334
330
339
349
347
336
333
340
348
347
338
335
340
348
346
337
333
340
349
349
342
338
345
353
350
341
338
345
354
352
345
344
349
357
355
345
342
347
353
349
339
336
343
352
349
337
332
337
346
345
333
328
333
341
340
331
328
335
343
341
332
329
335
342
341
332
328
335
343
341
331
329
335
344
342
332
328
335
344
342
332
330
336
344
341
332
329
336
345
342
333
330
337
345
343
333
332
338
346
343
334
332
339
347
343
334
331
338
345
342
333
332
338
347
344
335
332
339
347
343
334
332
338
345
343
333
331
338
346
343
334
331
338
346
343
334
332
339
346
343
335
332
339
347
345
335
332
339
347
344
335
332
339
347
344
334
332
339
347
344
335
334
340
348
345
336
333
340
348
346
336
334
341
350
346
336
333
339
347
345
337
338
346
353
349
339
338
346
353
349
340
338
346
353
352
343
339
344
351
347
338
337
341
347
343
334
332
340
348
344
334
332
339
347
344
335
332
339
347
344
340
343
358
376
382
380
387
399
404
388
361
339
328
320
310
299
301
314
328
330
325
326
335
344
342
332
331
338
345
341
332
331
340
350
347
337
335
343
351
347
337
336
342
350
346
336
335
341
349
347
340
339
347
354
350
340
338
346
352
350
343
343
351
358
353
343
341
348
354
347
337
336
344
351
348
336
331
338
346
343
332
327
333
341
338
329
327
335
342
338
329
328
336
344
339
330
329
337
344
339
329
328
336
343
339
331
329
336
345
340
331
330
337
343
340
331
331
337
344
340
331
330
338
345
341
331
332
338
347
340
332
332
339
345
340
332
331
339
346
342
332
331
338
346
341
332
331
338
345
341
332
331
339
346
341
332
332
340
347
342
333
333
341
347
343
334
333
340
346
342
334
333
341
348
343
334
334
342
349
344
334
334
341
348
344
335
334
342
348
343
335
334
342
348
344
335
335
342
349
344
335
335
343
349
344
335
335
343
349
343
335
337
348
354
349
340
340
347
353
349
340
339
348
354
351
343
340
346
352
348
338
338
345
348
340
332
333
341
347
341
333
333
342
347
343
333
333
341
347
342
336
340
355
372
377
377
385
400
408
393
367
346
335
325
310
299
301
315
329
328
323
327
338
347
342
332
331
340
346
342
333
332
341
350
346
338
338
345
350
345
336
337
345
350
344
336
336
344
349
344
339
341
349
354
349
340
340
348
354
348
341
344
354
360
351
342
343
352
356
348
338
338
346
352
346
337
336
342
348
344
333
330
337
343
337
329
329
338
343
337
328
329
338
344
338
329
330
338
344
337
329
330
339
344
338
330
330
339
344
338
330
330
339
346
340
331
331
338
344
338
331
331
340
345
339
331
332
341
347
341
332
332
340
346
339
332
334
342
347
341
333
334
341
347
340
332
333
342
347
340
333
334
342
347
341
332
334
343
348
340
331
333
342
348
342
333
334
342
347
341
332
334
342
347
339
331
333
341
347
340
332
333
343
347
340
333
334
343
347
340
333
335
343
348
342
334
335
345
350
342
335
335
345
350
343
334
336
344
349
342
335
339
350
355
348
339
339
347
352
346
339
340
348
352
347
342
342
348
352
346
338
340
348
351
341
333
335
344
348
339
332
334
343
348
341
333
335
345
349
341
336
339
353
367
373
373
383
399
408
394
371
352
341
330
311
297
299
313
325
324
321
327
338
345
339
331
332
340
344
337
330
332
342
348
343
335
337
346
350
341
333
335
344
349
342
335
337
346
350
344
338
342
351
354
346
338
340
348
353
346
340
345
355
359
350
343
345
352
357
347
337
339
348
351
344
337
336
342
345
339
331
331
338
344
335
328
330
339
343
336
328
331
339
343
336
329
331
339
344
336
329
331
340
344
337
329
332
340
345
336
329
331
341
344
337
330
333
342
344
337
329
332
341
346
338
331
333
342
346
338
330
332
341
345
337
330
332
341
346
337
331
333
342
346
339
332
335
342
346
339
333
334
342
346
338
331
334
343
348
340
333
335
344
348
340
333
335
343
347
339
332
334
343
347
339
332
335
345
348
339
332
335
344
348
340
333
335
345
348
339
332
336
344
347
339
332
335
344
348
340
334
336
345
348
340
332
335
345
349
341
333
337
349
354
346
339
341
350
353
344
338
340
348
352
345
341
342
348
350
342
336
339
348
349
339
331
334
343
346
338
331
335
345
348
338
332
335
344
347
338
334
339
352
364
367
370
382
399
406
394
375
360
348
333
311
299
301
314
323
320
319
327
338
342
335
330
334
343
345
337
330
333
341
346
341
335
339
348
350
341
335
338
347
351
342
335
337
347
350
341
336
342
352
354
345
338
342
352
354
345
340
346
356
358
348
342
345
355
357
347
338
341
349
354
342
336
338
343
345
336
330
333
340
341
333
328
331
340
342
334
327
331
340
343
336
328
332
341
344
335
330
333
342
345
336
328
332
341
342
334
328
333
342
345
336
330
333
342
345
337
330
333
342
344
336
331
334
343
345
336
329
333
343
345
337
331
335
344
345
338
332
335
344
345
337
332
334
343
345
337
332
336
345
347
337
331
335
345
347
337
332
336
346
347
338
333
336
345
347
337
333
337
345
346
338
333
336
344
347
339
333
337
347
347
336
331
336
346
347
337
332
337
346
346
337
332
337
345
347
338
333
337
347
348
339
334
337
347
348
338
333
338
351
353
344
337
341
351
351
342
337
342
351
351
343
341
347
352
352
342
337
342
352
351
338
331
336
346
347
338
333
338
348
347
338
332
337
347
346
337
333
341
354
361
361
367
379
397
404
396
381
368
358
340
315
301
302
314
320
318
318
328
341
342
335
331
336
345
345
335
330
335
344
346
340
336
339
347
348
339
335
339
349
349
339
334
340
350
349
339
335
343
353
353
342
337
343
353
353
343
339
346
356
357
347
341
346
356
355
344
337
340
349
349
340
336
339
346
345
337
333
337
343
341
332
328
334
342
341
332
328
333
343
343
333
328
334
344
344
333
330
334
343
342
333
328
334
343
343
333
328
333
342
342
334
330
336
343
342
333
329
335
343
343
333
330
335
344
343
334
332
336
345
344
334
330
336
344
344
335
331
336
345
344
334
330
336
346
346
335
331
336
345
346
336
332
337
346
345
336
332
337
346
346
336
332
338
347
345
336
332
337
346
345
336
332
338
347
346
336
332
339
348
347
337
332
338
347
347
337
333
339
348
346
336
333
340
348
346
336
333
339
347
347
337
333
338
347
346
337
334
340
351
352
343
340
344
352
352
341
337
343
352
350
341
339
347
352
349
339
336
342
352
350
337
331
337
345
344
335
331
338
347
345
335
332
339
348
346
336
332
340
352
357
356
363
379
396
402
396
385
375
364
343
317
303
304
311
314
311
315
327
340
340
332
330
336
344
342
333
330
336
345
345
337
335
343
350
348
337
335
341
351
349
338
334
340
349
347
338
336
346
354
353
343
339
345
354
352
342
339
347
357
356
346
343
349
358
354
344
339
343
351
349
340
338
343
348
344
334
332
338
344
340
330
327
334
342
339
329
327
334
343
340
330
327
335
343
341
331
329
335
343
341
332
329
336
344
342
331
327
334
342
340
331
329
336
345
341
332
330
336
344
342
333
330
338
344
342
334
331
337
345
342
332
331
339
346
343
333
331
339
348
343
334
332
339
346
343
334
332
338
346
343
334
332
338
347
344
334
332
338
347
344
334
333
340
347
344
335
333
340
347
342
333
332
339
348
344
334
332
338
346
343
334
333
340
348
344
335
333
340
348
344
334
333
340
348
344
335
334
341
349
345
335
334
341
348
344
336
335
341
349
349
341
339
346
353
348
339
338
345
352
348
339
340
351
357
350
338
337
345
353
349
337
333
339
347
344
335
333
340
348
344
336
333
341
348
345
336
335
343
352
352
352
360
378
395
400
395
391
384
372
347
321
307
307
313
312
310
315
328
340
338
331
331
339
346
342
333
332
339
347
341
335
336
345
351
345
336
335
343
350
346
337
336
343
350
345
336
335
344
353
349
340
338
347
354
349
340
339
347
356
353
344
344
351
358
352
343
340
345
351
345
337
337
345
349
341
331
330
339
345
337
327
326
335
341
337
328
328
336
343
338
330
329
337
343
337
329
330
337
343
338
329
329
338
345
340
331
330
339
345
339
330
330
337
344
338
330
330
338
345
340
331
330
338
345
340
333
332
340
346
341
332
332
341
346
341
332
332
340
347
341
333
332
341
347
341
332
332
341
347
342
333
334
342
347
342
334
334
342
348
343
333
333
341
348
342
333
333
341
348
342
334
334
343
348
342
333
334
342
348
341
333
334
341
347
342
335
335
343
348
342
334
334
344
349
342
333
334
342
349
342
334
335
343
348
342
334
335
344
350
347
340
341
348
353
347
339
339
347
353
346
337
338
349
356
347
337
338
347
353
347
337
334
341
347
340
333
334
343
349
342
334
335
343
348
341
332
333
343
350
347
345
357
378
391
394
392
393
393
380
353
324
310
310
312
307
306
314
328
338
335
329
333
342
346
339
330
332
342
346
338
332
336
347
351
343
334
337
347
352
344
335
337
345
351
345
336
337
346
354
348
341
342
349
353
345
339
341
349
356
351
343
344
352
357
349
342
342
348
350
343
336
338
348
350
340
331
333
342
345
335
327
329
339
343
335
327
329
338
344
336
328
329
339
343
335
328
330
339
344
336
327
330
338
342
335
328
330
340
345
337
329
331
342
344
336
329
333
341
345
337
330
333
342
345
338
331
334
342
346
338
331
333
341
346
339
331
333
342
346
339
332
334
343
346
338
331
334
343
346
339
332
334
343
346
338
332
334
343
346
338
331
335
345
349
339
332
335
344
347
339
332
334
344
348
340
332
336
344
348
340
333
335
344
348
340
332
335
344
347
339
332
335
346
348
340
333
336
345
348
340
332
336
345
348
339
333
335
344
347
341
337
341
351
353
343
336
340
349
352
343
337
340
352
357
345
337
340
349
352
343
336
336
343
346
338
332
335
344
348
339
333
335
344
347
339
332
336
345
349
344
343
355
374
388
389
391
396
397
385
356
330
316
315
313
304
303
313
328
335
330
326
333
342
344
336
329
333
343
344
336
331
337
348
350
341
335
338
348
350
341
334
338
348
350
340
334
338
348
352
346
341
345
352
353
345
340
344
352
355
349
344
348
356
358
349
342
346
351
351
341
336
340
350
351
339
331
335
344
345
335
327
331
341
343
334
328
331
340
342
334
327
331
341
343
334
329
333
342
343
334
328
332
342
343
334
329
333
343
343
335
330
333
341
343
335
329
333
342
344
334
329
334
344
346
335
329
335
344
345
336
330
335
343
345
335
330
335
344
345
336
331
335
344
345
336
331
335
344
345
336
331
336
344
346
336
331
336
345
346
336
331
337
346
346
337
333
336
345
347
338
333
338
347
348
338
332
338
347
348
338
333
338
348
348
339
333
338
346
347
338
335
339
347
347
337
333
338
347
348
338
333
337
346
346
336
333
338
347
347
340
337
343
352
352
342
337
342
351
351
341
336
341
352
355
346
338
341
349
350
341
337
339
346
345
336
332
338
346
346
336
332
338
347
346
336
333
338
347
347
341
342
357
375
384
383
388
399
405
391
362
336
324
320
314
302
301
313
328
334
329
326
334
345
345
336
332
337
345
343
334
330
338
350
349
340
335
341
350
349
339
335
340
349
348
339
335
341
350
351
344
341
346
355
353
343
339
345
354
354
347
344
349
357
356
345
341
347
355
351
340
336
342
352
350
339
332
337
346
344
333
327
332
341
339
330
327
333
341
340
331
328
335
343
342
332
328
334
344
343
332
328
334
343
342
334
331
336
344
343
335
331
335
344
342
333
329
335
344
342
332
329
336
346
344
334
331
338
345
343
334
332
338
346
344
334
331
338
347
345
335
332
338
347
345
334
331
337
346
343
334
331
337
346
343
333
331
337
346
343
335
332
339
347
345
336
331
338
347
343
333
331
337
346
344
335
333
340
349
345
335
333
340
348
344
335
332
338
347
344
335
331
338
347
345
335
333
339
347
344
334
333
340
348
344
335
333
339
347
345
336
336
344
352
350
339
337
344
352
349
340
337
344
352
352
342
338
344
352
350
339
337
342
348
344
335
333
340
348
345
335
333
341
348
345
335
332
339
348
344
337
338
353
371
378
379
385
399
406
392
366
343
330
324
312
299
300
313
328
330
324
326
335
345
342
333
330
338
345
342
332
330
338
348
345
336
335
342
349
346
337
335
342
349
346
337
337
343
350
348
341
341
348
354
351
341
339
347
354
349
343
343
352
359
354
344
343
350
356
349
338
336
344
352
348
338
334
340
347
343
334
329
337
344
340
331
330
336
343
339
330
329
336
343
339
330
330
337
344
339
330
332
337
344
340
330
329
337
345
341
332
331
338
345
340
332
331
339
346
342
330
330
338
346
341
333
332
340
346
340
331
331
340
347
341
332
331
337
344
339
332
332
341
347
342
333
333
341
347
342
334
333
341
347
342
334
333
340
347
343
333
333
340
346
342
333
333
341
347
342
334
333
342
348
342
333
334
343
348
342
333
333
341
348
342
334
334
342
347
342
333
333
342
348
343
334
334
342
348
343
335
334
342
347
342
335
336
343
349
343
336
337
347
353
348
339
339
347
353
348
338
338
347
352
349
342
340
346
351
345
337
338
346
348
339
330
332
342
348
342
334
334
342
348
343
334
334
342
349
342
336
338
353
368
373
374
384
399
408
394
371
352
339
328
311
298
299
312
324
324
321
326
337
345
340
332
333
341
347
341
333
333
341
350
346
337
337
345
350
344
337
337
345
351
345
337
337
345
351
345
338
340
349
355
347
340
340
349
354
347
341
344
354
360
352
344
344
353
357
348
337
337
346
352
347
338
335
341
347
341
334
332
338
342
336
328
330
338
343
337
329
330
339
344
336
329
330
338
343
337
329
330
339
344
338
330
331
339
344
337
330
332
340
344
337
330
331
339
345
338
330
332
340
346
339
331
333
342
345
339
331
333
341
345
338
331
333
341
346
339
332
333
343
346
339
331
333
342
347
340
332
334
342
347
339
331
334
343
347
340
332
334
343
347
340
332
333
342
347
340
333
335
344
348
340
334
336
344
347
340
333
335
344
347
340
333
335
343
348
340
333
335
344
348
341
333
334
343
347
340
333
335
344
347
340
333
336
345
348
342
334
338
350
355
347
339
341
349
352
344
337
339
348
352
345
341
343
350
352
343
336
339
347
347
337
329
333
343
347
339
332
335
344
347
340
332
335
344
348
339
332
338
352
364
366
369
381
399
408
397
375
359
347
333
313
299
300
313
323
322
319
327
338
344
337
331
334
343
346
337
330
333
343
348
342
336
337
346
349
341
335
339
346
348
340
333
335
345
349
341
336
341
351
355
345
338
341
350
353
344
338
344
353
356
348
342
344
353
355
345
335
338
347
351
343
336
337
344
346
337
331
332
338
340
332
326
330
339
343
334
328
332
342
344
336
327
331
340
343
334
328
331
340
343
335
329
332
342
343
335
329
333
342
344
334
328
332
341
344
336
329
333
342
346
337
331
333
343
347
337
330
333
343
345
336
330
334
343
345
336
329
333
343
346
338
331
335
344
346
338
331
335
344
347
337
331
334
344
346
337
332
336
344
346
337
331
335
345
347
337
331
335
344
346
337
332
336
345
348
339
334
337
346
348
338
333
338
347
347
337
331
336
345
347
339
333
337
347
349
339
333
337
346
348
338
332
336
347
348
340
334
338
350
354
345
338
342
351
353
344
338
342
351
352
343
340
345
352
352
343
337
341
351
351
338
331
335
345
346
337
333
337
346
346
337
333
337
347
348
338
333
340
353
362
362
367
381
400
406
396
380
368
357
338
314
301
303
313
320
317
318
327
339
342
335
331
335
344
344
335
330
335
345
346
339
335
340
349
348
340
336
340
348
349
340
336
339
348
349
339
336
344
353
353
344
338
343
352
352
343
338
346
357
357
347
342
346
356
356
346
337
340
349
351
341
337
340
346
345
336
332
336
342
339
330
327
333
342
342
332
330
333
342
342
333
329
333
342
342
333
328
333
343
343
333
330
336
344
343
334
329
335
344
343
334
330
335
344
343
334
330
335
346
346
336
331
336
345
345
336
330
336
346
345
335
331
337
345
344
336
332
336
345
344
334
330
336
345
344
335
330
336
345
343
334
330
336
346
344
335
332
338
346
345
336
332
338
347
346
336
332
337
347
347
336
332
337
346
345
336
332
338
347
345
336
332
337
346
345
335
334
339
347
346
337
334
339
347
345
336
332
337
345
344
336
333
339
347
346
336
332
338
349
351
342
339
343
352
351
341
337
343
352
350
342
341
347
353
350
341
337
343
351
349
336
331
337
346
345
334
331
339
348
345
336
331
337
346
345
336
332
339
352
356
357
363
379
397
403
396
385
376
364
342
317
303
304
313
316
314
317
329
341
340
334
333
338
345
343
333
330
337
345
344
337
336
342
349
346
336
334
342
349
348
338
334
340
349
346
337
334
343
353
351
341
338
344
352
350
340
338
347
358
356
345
342
348
357
353
343
338
343
350
348
340
337
344
349
344
334
332
339
345
340
332
329
336
342
339
330
328
335
342
340
331
328
334
342
340
331
328
335
343
340
331
328
335
344
340
332
330
337
344
341
331
328
336
344
341
333
330
336
344
341
332
329
336
346
342
333
331
338
346
342
332
331
338
346
343
333
332
338
346
342
336
331
339
346
343
334
332
339
347
343
334
331
339
347
343
334
333
340
347
344
335
333
340
347
343
335
332
339
346
343
335
332
339
347
345
334
332
339
348
344
334
332
340
348
343
334
333
340
348
346
336
334
341
348
344
336
334
341
349
345
336
333
340
348
344
336
334
341
350
349
339
339
345
352
348
339
338
345
352
347
338
338
349
355
349
339
337
345
354
349
336
332
339
347
343
334
334
341
348
344
335
334
340
347
343
335
333
341
352
353
352
360
377
396
399
395
391
385
372
346
319
306
308
312
312
309
316
329
340
337
332
332
339
345
341
333
331
338
346
341
335
336
344
350
345
336
335
342
350
345
336
335
343
350
345
336
335
345
355
349
340
338
346
353
348
339
338
347
356
352
344
344
351
357
353
343
341
345
352
347
339
337
345
349
342
333
333
340
346
338
328
328
336
344
339
330
329
337
344
339
329
329
337
345
339
330
329
337
344
339
331
331
339
345
339
330
330
339
346
341
332
330
338
345
340
330
330
339
345
340
331
331
338
345
340
331
332
340
345
340
332
332
340
346
340
332
333
340
347
341
333
333
341
347
341
332
332
340
346
341
334
332
340
347
341
333
333
342
348
342
334
335
342
348
342
332
334
342
348
341
333
333
342
348
342
333
333
342
348
342
333
334
342
348
342
334
335
343
348
342
334
334
342
347
341
334
335
344
349
342
334
336
344
349
342
334
335
343
349
344
338
339
348
353
347
339
339
347
354
346
337
338
349
356
347
338
338
346
352
346
335
334
342
347
341
333
333
342
347
341
333
334
342
347
341
332
333
342
350
347
347
359
377
392
393
392
393
391
378
351
323
309
310
314
310
306
314
329
339
335
329
332
342
346
340
332
333
341
346
339
333
336
346
351
343
336
338
346
350
342
335
336
345
350
343
335
335
345
353
349
340
341
349
354
347
339
340
350
357
353
344
345
354
358
351
343
342
348
351
344
338
339
348
350
341
332
334
343
346
336
327
329
338
342
336
328
331
340
344
336
328
330
340
344
337
330
331
340
344
336
329
330
339
345
337
329
331
340
344
335
328
330
340
344
337
329
332
340
344
336
330
331
339
344
337
330
332
341
345
337
330
332
341
346
337
330
332
343
346
338
333
335
344
348
339
332
334
342
347
339
331
333
343
347
340
331
333
342
348
339
332
333
342
346
339
331
334
342
347
339
333
335
343
346
339
332
334
344
347
339
331
335
344
348
341
334
336
345
348
339
332
335
344
348
341
335
337
346
349
340
333
336
345
349
340
334
336
345
349
344
339
341
350
352
345
338
341
350
353
344
337
340
351
356
345
336
339
348
352
345
336
336
343
346
339
332
336
345
348
340
333
336
344
347
339
333
336
344
350
344
344
356
376
390
389
390
396
397
385
356
329
316
315
313
305
303
312
327
336
333
329
333
344
347
337
330
334
343
346
337
331
337
348
351
342
335
338
347
349
342
335
338
346
349
340
334
337
346
353
347
340
342
351
353
345
339
343
351
354
348
343
346
356
357
347
341
344
350
351
342
336
339
349
352
341
332
335
344
348
336
327
329
338
342
333
327
331
341
342
334
329
333
342
343
334
328
331
341
343
335
328
332
342
344
335
329
332
342
344
336
329
334
342
345
336
330
334
343
344
336
331
334
343
345
336
330
334
343
346
337
330
335
345
347
338
331
334
344
345
336
332
336
343
345
337
332
336
344
345
336
330
334
342
345
337
332
336
345
346
337
331
335
344
346
338
332
336
345
347
338
332
337
345
347
339
334
337
345
347
338
333
336
346
347
338
333
336
346
347
339
334
339
346
347
338
333
337
346
348
339
333
337
346
347
338
333
336
346
347
339
336
343
352
352
342
337
341
350
351
342
337
341
353
356
346
338
341
350
351
343
338
338
346
347
337
332
336
345
346
337
332
338
347
347
337
332
337
347
348
341
340
353
373
385
386
388
398
402
390
364
336
322
318
313
302
301
312
328
334
330
328
334
345
345
336
330
335
343
343
334
329
337
348
349
339
335
339
349
349
340
336
341
349
349
339
335
339
348
351
345
340
345
352
352
343
338
343
353
354
347
344
348
357
356
347
342
346
352
351
340
336
341
352
351
340
332
335
345
345
334
326
330
340
341
332
327
332
341
341
332
327
332
341
342
333
328
333
341
341
332
327
333
343
343
332
327
332
342
343
332
328
333
343
343
333
328
334
343
344
334
329
334
343
343
334
330
334
343
344
336
331
336
344
344
334
330
335
344
344
335
330
336
345
344
335
330
336
345
345
335
331
337
347
346
337
332
337
346
345
336
331
337
346
345
336
332
337
346
345
335
333
336
345
345
336
332
338
347
346
337
332
337
347
346
337
332
338
348
346
336
332
338
347
346
337
334
339
348
346
336
332
337
347
348
339
334
339
347
346
336
335
343
353
352
342
338
343
352
351
341
337
342
351
353
344
338
342
351
350
341
337
341
347
345
336
333
339
349
347
336
333
339
348
347
337
333
339
347
346
339
340
352
372
380
381
386
398
406
394
366
342
329
324
315
302
300
312
328
332
328
328
335
344
344
335
332
337
344
342
334
331
338
349
349
339
335
342
351
348
338
334
340
349
347
338
335
339
347
348
341
339
345
352
350
342
338
343
352
351
344
343
350
357
355
345
341
347
354
350
339
336
344
352
348
337
331
335
344
344
333
327
331
340
339
330
327
333
343
342
331
328
333
341
339
331
329
334
342
340
331
328
333
342
340
332
330
336
344
342
332
330
337
345
342
333
330
335
343
341
333
331
337
345
342
333
331
337
345
343
334
330
336
345
344
334
331
336
345
343
333
330
336
346
343
334
331
338
345
343
334
331
337
345
343
334
332
338
346
344
334
332
339
347
345
335
332
339
347
343
334
332
338
347
344
334
332
339
348
346
336
334
340
348
344
335
333
339
348
345
336
333
339
348
345
336
334
340
348
345
335
333
340
349
346
336
334
340
350
347
337
336
345
354
350
341
338
345
354
350
342
340
345
353
352
344
340
344
351
349
341
338
343
348
343
333
331
339
347
344
334
333
341
348
345
336
333
340
348
345
337
337
350
368
375
375
382
397
408
397
372
348
336
328
314
301
299
312
326
329
324
326
335
345
344
335
332
338
346
343
334
331
339
350
348
338
335
342
349
346
338
336
345
351
347
337
335
342
349
346
340
341
348
355
351
342
340
347
355
351
343
344
351
359
354
344
343
350
357
350
339
337
345
352
348
340
336
339
345
343
335
329
334
341
338
329
328
335
343
340
330
328
336
344
340
331
329
336
343
339
329
328
335
343
340
332
330
337
344
340
330
329
336
344
340
330
329
338
345
341
331
330
338
345
340
332
332
339
346
341
332
331
339
346
341
331
330
338
346
341
331
331
339
346
342
333
332
339
345
341
332
331
339
346
341
333
332
339
347
342
333
333
341
348
343
334
333
341
348
344
334
334
341
348
343
334
335
343
350
344
336
333
340
347
344
335
336
343
350
345
335
334
341
349
344
335
333
341
348
344
335
334
342
349
343
334
333
341
349
344
334
334
345
353
349
340
339
346
352
348
340
339
347
352
349
342
340
345
351
346
338
338
345
349
341
331
331
340
347
342
334
332
340
347
342
333
332
341
348
343
335
337
350
367
372
372
380
397
408
398
374
355
342
333
314
299
298
309
323
325
322
327
336
344
340
332
332
339
346
340
332
331
338
347
346
337
336
344
350
345
335
336
344
350
344
336
336
344
350
345
338
340
348
354
348
339
339
347
353
348
340
342
352
358
352
342
343
351
356
348
337
338
346
352
347
337
336
340
345
340
332
331
336
342
336
328
329
337
343
337
328
329
338
343
337
329
330
338
344
337
330
330
337
343
338
329
329
337
344
338
330
330
338
344
338
329
331
338
344
338
329
329
339
345
339
330
331
339
345
339
331
332
340
346
340
332
332
341
347
340
331
332
341
347
341
333
333
341
347
340
332
332
341
346
341
333
333
341
347
341
332
333
342
348
341
333
333
341
349
342
333
334
342
347
341
333
335
343
347
341
334
335
343
349
342
333
333
341
348
342
333
334
343
350
344
334
334
343
348
342
334
335
344
349
342
334
336
345
350
343
335
337
349
356
349
339
341
348
353
345
337
338
350
354
346
341
342
348
352
345
338
339
347
351
341
332
333
342
348
342
334
334
342
347
341
332
334
343
348
341
334
337
349
362
365
368
378
395
407
400
380
363
351
338
317
301
299
311
322
321
319
325
337
344
339
331
332
340
345
338
331
333
342
347
343
336
338
345
350
343
334
336
345
350
343
335
337
346
351
344
337
342
352
355
347
340
342
351
355
347
340
344
355
359
350
342
344
353
357
348
338
338
347
352
344
337
337
343
345
338
331
332
339
342
334
329
331
339
343
336
328
330
339
343
336
328
331
340
344
336
328
330
340
343
336
329
330
340
344
336
328
331
340
345
338
330
332
341
345
338
330
332
342
345
338
332
333
341
345
338
332
334
342
347
339
331
333
342
346
339
331
334
343
346
340
332
335
344
347
339
331
334
344
348
340
332
334
342
347
340
333
334
344
347
340
333
335
343
346
339
332
335
344
346
339
332
335
344
348
340
333
335
344
347
339
332
335
344
348
340
333
336
346
349
340
333
336
345
349
341
333
336
344
347
340
333
337
346
349
341
334
336
348
354
347
339
340
349
352
344
337
339
348
352
344
340
345
352
352
343
337
341
350
352
340
331
334
344
348
339
332
335
344
348
340
332
334
344
346
339
332
337
349
358
359
363
377
394
405
398
384
371
360
343
319
302
301
311
319
317
317
325
338
342
336
331
336
344
346
337
330
334
343
345
340
336
339
347
350
341
334
338
347
351
342
335
338
348
351
342
336
341
352
355
346
339
342
350
353
345
339
343
355
358
350
342
345
354
357
347
338
340
349
351
342
336
339
344
345
337
331
335
341
340
331
327
332
340
341
333
327
332
342
344
335
328
331
341
344
336
329
333
341
343
336
330
333
342
344
335
329
332
341
343
335
329
332
341
343
335
328
333
343
344
335
328
333
342
344
335
329
333
342
344
336
331
335
344
345
336
329
334
343
345
335
329
333
343
345
336
330
333
342
346
337
331
333
344
345
336
330
334
344
345
336
331
335
343
345
336
331
335
344
346
337
331
335
345
346
337
331
336
345
347
338
332
336
345
346
338
332
336
346
347
337
332
336
346
347
339
333
337
346
348
341
334
337
346
348
339
334
339
349
352
344
338
342
351
352
343
338
341
351
352
344
340
347
353
351
340
335
340
350
351
340
334
335
345
347
338
332
336
345
345
336
332
335
345
346
337
332
337
349
356
358
362
375
392
403
398
389
379
369
349
323
304
303
310
317
313
314
323
338
341
334
329
334
344
345
336
331
335
344
345
338
335
340
349
350
341
335
339
348
348
339
335
340
349
348
339
334
341
352
354
344
340
344
352
352
343
339
345
357
358
348
342
346
355
355
347
339
341
351
351
343
336
341
349
346
336
331
336
342
340
331
327
332
341
342
334
329
333
341
342
333
327
333
342
343
334
330
334
343
344
333
329
333
343
342
332
328
333
342
342
334
329
334
343
343
334
330
334
345
344
334
329
335
344
344
335
330
336
344
344
335
330
335
343
343
335
331
336
345
344
335
332
337
346
345
336
332
338
346
345
336
332
337
346
345
336
332
337
347
347
337
332
338
347
346
337
333
339
347
347
338
334
339
348
347
338
333
338
347
347
337
333
337
346
347
338
334
339
348
347
338
334
339
348
347
337
333
338
348
347
337
334
340
350
348
337
333
339
349
351
343
339
344
353
352
343
338
343
352
352
342
338
345
355
352
341
337
342
351
350
339
331
337
345
345
336
331
337
347
346
336
332
338
347
345
335
332
338
351
353
352
357
373
391
398
395
391
384
375
353
326
307
306
312
313
309
311
323
337
338
330
329
335
345
343
333
329
336
344
342
335
335
341
350
347
338
335
340
350
348
339
336
342
350
348
338
335
342
353
352
343
339
345
354
353
343
339
344
355
356
347
344
348
356
356
345
340
343
350
348
339
336
341
349
343
333
330
337
345
340
330
326
333
341
340
331
327
334
343
341
330
327
335
344
340
331
327
334
343
340
331
328
334
343
342
333
329
335
343
341
332
329
336
344
341
332
329
336
345
342
332
329
337
346
343
333
330
337
346
344
334
331
337
345
343
333
331
337
346
344
333
329
336
346
345
335
332
337
346
344
335
331
337
346
344
335
333
339
348
345
336
333
338
347
344
336
333
339
347
345
335
333
340
347
344
334
331
339
347
344
335
332
338
347
344
335
332
339
347
345
336
332
339
347
344
334
332
339
347
343
334
332
340
347
344
335
333
340
348
347
340
339
345
352
348
339
336
343
352
349
339
336
346
356
350
338
335
343
352
349
338
333
337
346
344
335
332
340
347
343
335
332
339
346
343
334
332
339
349
349
346
353
371
389
395
393
393
392
384
360
331
312
309
313
311
307
312
325
337
337
330
330
338
346
341
332
331
338
346
342
332
334
343
351
347
337
335
343
350
347
337
335
342
350
347
337
336
343
354
353
344
341
348
356
351
341
339
347
355
354
346
344
351
358
353
344
343
346
352
347
338
337
345
351
345
334
332
340
347
340
329
328
335
343
338
328
328
336
343
339
330
329
335
342
339
330
328
336
342
338
330
329
337
344
340
331
330
336
344
339
332
331
338
345
341
332
331
338
344
340
332
331
338
345
340
331
330
338
346
341
332
331
339
346
342
334
332
340
347
342
333
333
341
347
342
333
333
340
347
342
334
332
340
347
342
333
333
340
346
342
334
333
341
347
343
334
333
341
348
344
334
333
341
348
343
334
334
341
348
343
334
333
340
348
344
336
334
341
348
345
336
334
341
349
344
335
334
341
349
344
336
336
343
349
343
334
334
341
348
343
337
339
347
353
348
339
338
346
353
348
338
338
347
358
350
339
338
347
353
347
339
336
341
346
342
334
333
340
347
341
333
334
341
348
343
334
334
342
350
347
343
351
370
386
389
389
394
397
389
365
336
318
314
315
308
303
310
325
337
336
328
330
340
347
340
331
330
339
345
339
331
334
345
351
344
336
335
344
351
345
337
336
344
350
345
336
336
344
352
349
340
340
349
355
349
340
340
348
355
352
345
344
352
357
351
343
343
348
351
345
336
337
345
352
344
332
331
339
346
338
327
326
335
342
336
330
330
338
343
337
330
330
339
344
338
329
330
338
344
338
330
330
338
344
338
331
331
340
345
339
330
332
340
346
339
330
330
338
344
339
332
332
339
345
339
331
331
341
346
340
331
333
341
345
340
331
332
341
346
339
331
331
340
346
340
331
332
340
345
339
331
332
342
347
342
333
333
340
346
340
332
333
341
346
340
332
333
342
348
342
334
336
343
349
341
333
335
343
349
342
333
334
342
347
341
334
335
343
348
344
334
334
343
349
343
334
334
343
349
343
334
336
344
348
342
334
334
342
347
341
337
341
348
352
345
337
339
348
353
346
338
339
348
356
349
339
339
348
352
345
337
337
343
347
340
334
335
344
349
342
333
334
343
349
342
333
335
344
349
345
340
350
369
384
386
387
395
402
395
370
341
324
318
315
305
300
308
323
333
331
325
329
340
345
339
330
331
340
345
338
330
333
344
350
342
335
337
346
351
345
337
337
345
349
341
333
336
345
352
346
339
341
349
353
345
338
340
349
353
348
343
345
353
357
349
342
344
351
352
344
336
339
348
353
343
333
333
343
346
337
327
329
338
342
334
326
329
338
343
336
330
332
339
343
336
328
331
340
343
335
328
331
341
344
336
329
332
340
344
336
330
333
342
345
337
330
332
342
346
338
330
332
341
346
338
331
333
342
346
339
331
333
341
345
337
331
335
343
347
338
332
335
343
349
340
332
334
344
347
339
332
335
344
348
339
332
335
343
347
339
333
336
344
347
340
332
336
345
348
341
333
337
345
348
339
333
336
345
348
339
332
336
345
347
339
332
336
345
348
340
334
336
345
348
340
333
336
346
348
341
333
335
344
348
340
334
337
346
348
339
336
341
350
353
344
338
340
349
352
344
337
341
349
355
348
339
340
349
352
344
337
339
345
346
337
331
335
344
346
338
333
336
344
347
339
333
336
345
348
342
339
349
367
379
380
382
393
404
398
373
346
330
323
315
303
298
306
322
330
327
324
331
342
345
337
330
333
342
345
337
331
335
347
350
342
335
341
347
349
341
336
338
347
350
342
336
339
348
350
344
340
343
351
352
344
339
343
352
352
346
343
347
355
356
348
342
346
354
353
343
336
340
349
352
342
332
334
343
346
337
328
330
338
341
333
327
330
339
341
333
328
332
341
340
331
327
332
342
343
334
328
334
343
343
334
329
334
342
343
334
329
334
342
343
335
329
332
342
344
336
330
334
343
345
336
331
334
343
345
336
331
335
344
345
336
331
335
343
344
335
331
335
343
344
337
331
335
344
345
336
331
335
345
345
336
330
334
344
346
337
331
336
345
346
336
332
336
345
346
338
333
336
344
346
337
332
337
346
348
339
333
336
346
346
338
334
339
348
348
338
332
336
345
346
337
332
338
347
347
337
332
337
346
346
336
332
338
348
348
338
335
342
351
352
343
337
341
349
350
343
338
341
349
352
346
341
343
350
351
342
338
342
349
347
336
332
337
347
347
337
334
339
348
347
338
333
338
347
347
339
337
347
365
376
377
381
393
407
401
378
355
339
331
319
303
297
307
323
329
325
325
333
343
345
336
331
336
343
344
335
331
336
347
349
341
336
340
348
349
340
336
341
350
349
340
335
339
348
348
341
340
346
353
352
342
338
343
352
351
342
341
349
358
357
347
342
346
355
353
342
337
342
351
351
341
334
338
346
346
337
330
333
341
340
331
327
334
342
341
331
327
333
341
341
332
329
335
343
343
333
329
334
344
343
334
330
335
344
343
334
330
336
344
343
334
331
335
344
343
334
330
336
345
345
335
330
337
346
345
335
331
336
344
344
334
331
337
345
345
336
331
336
345
345
337
333
338
346
345
335
331
337
347
346
336
332
338
346
344
335
331
337
347
345
336
332
338
346
344
336
332
338
346
344
336
332
337
347
345
336
333
338
346
344
336
333
340
347
345
336
333
338
347
345
336
333
338
346
344
335
331
338
347
345
337
334
339
349
346
337
333
342
353
351
341
337
342
351
349
340
337
344
352
352
345
340
343
351
349
339
336
342
349
344
334
331
338
346
345
335
333
338
346
345
336
333
338
346
344
335
336
346
362
370
370
376
390
406
402
381
360
346
336
321
304
297
306
320
325
322
324
334
343
342
334
330
336
345
343
333
330
337
348
347
337
334
341
348
347
337
335
341
348
345
337
334
342
350
346
337
338
346
354
351
341
338
345
353
350
341
341
350
358
354
344
342
349
357
353
340
335
342
351
349
339
335
339
345
343
334
330
334
340
338
330
327
335
343
340
331
329
334
343
340
331
329
336
344
341
332
330
339
344
341
331
329
336
344
341
331
329
337
344
342
333
330
337
345
341
333
331
338
346
343
332
330
337
345
342
333
331
338
347
343
333
331
338
344
342
333
333
340
347
343
334
331
338
346
342
334
332
339
346
344
334
332
339
347
343
334
333
340
347
344
335
333
340
347
345
336
334
340
348
344
335
331
338
347
344
335
334
341
348
344
334
332
340
347
344
335
333
341
348
344
336
334
340
348
344
335
333
341
349
345
335
333
341
349
346
336
334
345
355
351
341
339
346
352
350
340
339
346
352
349
342
342
347
352
347
338
337
344
351
344
334
332
340
347
343
333
333
340
347
342
333
333
340
346
341
333
334
346
360
366
367
374
390
406
403
385
367
354
341
321
303
298
307
320
322
317
322
333
342
339
332
330
337
344
341
332
331
338
346
343
337
336
345
351
345
335
334
342
349
345
336
335
343
350
345
337
338
348
356
351
340
340
347
355
350
341
341
352
359
354
345
343
350
356
351
340
338
344
350
346
339
337
341
345
341
333
333
338
342
337
329
329
338
344
339
329
328
337
343
339
331
331
338
345
340
330
330
336
343
338
329
328
336
344
339
330
330
338
345
340
331
330
337
345
340
332
332
339
344
339
332
332
340
346
340
332
332
340
346
340
332
331
340
346
341
332
333
341
347
341
333
332
340
346
341
332
332
340
346
341
332
333
341
348
341
333
333
342
347
342
334
334
341
346
340
333
334
342
349
342
333
334
343
347
342
333
333
341
348
343
335
335
342
350
343
334
334
343
349
343
335
335
342
348
342
334
334
341
347
342
334
335
342
348
342
335
335
344
353
347
339
339
347
352
346
338
341
349
354
347
341
344
351
355
348
339
339
347
352
343
333
333
342
349
343
334
334
342
348
341
333
334
343
347
341
334
336
348
358
360
362
374
390
403
400
387
374
363
348
325
304
299
306
316
317
316
322
335
342
338
332
333
341
345
338
330
332
341
347
342
336
338
346
351
345
337
337
345
350
344
335
337
345
350
343
335
340
350
355
349
340
341
349
354
348
339
342
354
360
353
345
346
354
358
351
340
340
347
353
347
339
339
345
347
340
333
334
340
342
335
328
330
339
343
336
328
331
340
344
337
329
330
340
345
337
329
330
338
343
337
329
330
339
344
337
329
331
340
344
337
329
330
340
345
338
330
332
341
346
339
332
333
341
345
338
330
332
342
346
338
331
333
342
347
340
332
333
343
347
338
330
334
342
347
339
331
333
342
347
340
332
334
343
348
340
332
334
343
347
339
331
334
344
347
339
332
334
344
349
341
334
336
344
348
340
333
335
344
347
339
332
335
344
348
340
333
335
344
348
340
333
335
344
348
340
334
336
345
349
341
333
336
344
349
341
333
336
346
353
347
338
339
348
352
344
337
341
349
353
344
338
343
351
352
343
336
339
348
351
341
331
332
342
347
339
332
334
343
347
339
332
335
343
346
338
332
335
346
353
354
357
371
389
401
399
390
380
371
354
327
306
302
308
315
312
312
321
334
341
335
330
333
343
345
336
329
332
341
345
338
334
337
346
349
340
333
336
346
350
342
335
337
346
349
341
334
338
351
354
345
338
343
352
354
346
338
343
354
358
350
342
345
354
358
349
340
341
349
351
343
336
340
348
348
337
330
334
342
342
332
326
330
339
342
334
328
331
340
342
334
328
331
340
343
335
327
332
342
343
335
328
332
341
344
335
329
333
343
345
335
328
331
341
343
336
328
332
342
344
335
330
333
342
344
337
330
334
343
345
336
330
334
344
346
336
331
335
345
346
337
331
335
343
345
337
332
334
344
346
337
330
334
344
347
338
332
336
344
347
337
331
336
344
345
336
331
336
345
346
336
331
335
344
346
339
332
335
345
347
338
332
336
346
347
338
333
337
346
347
338
333
337
347
347
338
332
336
346
348
338
332
335
347
348
339
333
337
346
351
345
339
342
352
352
343
337
341
350
351
342
337
344
353
352
341
336
339
349
350
340
332
334
344
345
336
331
335
345
346
337
332
336
345
347
338
332
336
349
352
350
355
370
388
397
397
393
388
380
360
331
311
305
311
312
308
310
321
335
340
333
330
335
344
345
335
330
335
344
345
337
334
340
349
350
341
334
339
349
349
340
334
339
348
347
339
335
340
353
354
344
338
343
353
353
342
338
343
354
356
348
344
348
356
356
347
341
344
350
350
341
337
341
350
347
336
332
337
346
343
331
327
333
342
341
332
327
332
341
342
332
328
334
343
342
333
328
334
342
342
333
329
336
344
342
333
329
335
344
343
333
328
334
344
344
335
329
336
345
345
334
331
335
345
343
334
331
337
346
344
335
330
336
346
345
336
332
338
347
346
336
331
337
347
345
336
333
338
346
345
336
332
339
348
345
335
331
337
347
346
336
333
339
348
347
336
333
339
349
348
337
333
339
349
347
338
333
339
348
346
337
333
338
347
347
337
333
339
347
345
335
331
338
347
346
336
332
338
346
346
337
334
339
349
347
337
334
339
348
348
342
338
345
353
350
340
337
344
353
351
342
338
346
356
351
340
337
343
352
350
340
334
337
345
343
334
331
338
347
344
335
332
339
347
345
335
332
338
348
350
346
352
368
387
393
392
392
394
387
366
335
315
310
314
310
304
308
321
335
337
329
329
336
345
343
332
330
336
345
343
334
333
341
350
347
337
335
342
350
347
338
336
342
351
347
337
335
342
353
353
344
340
345
354
351
341
338
346
356
356
346
343
349
357
354
344
342
346
352
348
338
336
343
352
345
334
331
338
346
341
329
326
334
342
339
330
327
335
345
340
330
327
335
342
339
329
327
334
343
340
331
329
335
343
340
331
329
336
344
341
331
329
336
345
341
331
329
337
345
341
332
330
337
346
342
332
329
337
345
342
332
331
339
346
342
332
331
338
346
343
333
331
338
347
344
334
332
339
347
342
332
331
339
348
344
335
332
340
348
344
334
332
339
348
345
334
332
340
349
345
334
332
340
347
344
335
332
339
347
343
336
333
341
348
345
335
333
340
347
343
334
334
342
349
346
336
335
343
350
345
335
335
343
349
345
335
333
341
349
345
338
338
346
353
348
339
338
346
353
348
338
338
346
356
352
340
337
344
352
347
338
335
340
345
342
333
333
341
347
341
333
333
341
348
343
334
333
342
350
348
342
349
367
385
388
387
392
398
392
369
338
319
314
314
307
302
307
322
334
334
327
327
337
345
339
330
329
337
345
341
332
333
345
352
345
335
335
345
352
346
337
336
345
351
346
336
336
344
352
349
341
341
347
355
349
340
339
347
353
351
344
344
353
358
352
343
343
349
352
345
337
338
346
351
343
332
331
339
346
339
327
326
335
342
337
328
328
336
343
337
328
329
338
344
337
328
329
338
343
338
330
330
338
345
338
331
330
338
344
339
330
330
339
345
339
329
329
339
345
339
330
329
339
344
339
330
331
339
346
340
330
331
340
347
341
332
332
341
347
340
331
332
341
347
340
331
332
341
347
341
332
333
341
347
341
332
334
342
348
342
332
333
341
347
340
332
334
344
350
342
333
333
342
348
342
332
334
342
347
341
334
334
342
347
342
334
335
343
348
341
334
335
344
349
342
334
335
344
348
342
333
336
344
348
342
334
335
344
348
342
335
339
348
352
345
337
339
348
354
346
338
338
348
355
350
339
338
346
351
345
336
336
342
347
340
332
333
341
346
340
331
333
343
348
340
332
333
342
347
343
338
348
366
381
383
383
393
403
398
375
346
328
321
317
306
299
306
321
332
330
326
330
341
346
338
331
332
341
345
337
330
333
345
351
344
335
336
345
349
341
333
335
345
350
342
334
337
346
351
346
339
340
349
354
345
337
339
349
353
348
342
345
352
356
349
342
344
352
353
344
336
338
347
350
342
332
333
342
346
338
327
328
337
343
335
327
331
340
343
335
327
330
339
344
336
328
331
340
345
336
329
331
340
344
337
329
331
340
344
336
329
332
341
345
337
330
331
342
345
338
331
333
342
345
337
330
333
342
346
339
332
334
342
347
339
331
333
343
347
337
330
333
343
347
339
331
334
345
348
340
332
336
344
347
338
332
335
345
348
340
333
335
345
348
340
333
336
345
349
340
333
335
344
348
338
332
336
345
348
340
333
335
344
347
339
332
336
345
349
339
332
335
345
349
341
333
335
344
347
339
333
336
345
349
341
333
336
345
347
339
335
341
352
354
344
338
341
349
352
343
337
341
350
354
348
339
340
348
350
343
337
340
346
346
337
331
336
346
348
338
331
334
344
347
338
332
336
345
348
340
336
346
364
377
378
381
392
406
403
379
353
336
329
320
306
298
306
322
331
327
325
330
341
345
336
329
333
342
344
336
330
333
345
349
342
335
338
347
350
341
335
339
348
351
341
335
339
349
350
344
340
344
353
353
344
338
342
351
352
345
341
347
355
357
348
343
346
355
354
343
336
340
350
352
342
332
335
344
346
337
328
330
340
341
333
327
331
341
342
332
327
331
341
343
333
328
333
344
346
335
329
333
341
343
334
329
333
342
344
335
329
333
342
344
336
331
334
342
345
335
330
333
342
343
335
329
334
344
345
336
330
334
344
346
336
330
334
343
344
336
332
336
346
347
337
331
335
345
347
339
333
337
345
346
336
330
335
346
346
337
331
336
345
346
336
332
338
346
346
337
332
337
346
348
339
332
339
347
348
340
333
337
347
349
338
332
336
346
347
338
333
337
345
347
338
333
338
347
346
338
333
337
346
347
337
333
339
347
348
339
334
341
352
353
343
338
343
352
353
343
338
343
351
351
344
339
342
350
350
341
336
341
348
348
337
331
335
344
345
337
332
337
345
345
335
331
336
346
346
337
336
345
361
371
373
377
391
406
403
382
358
343
335
321
304
297
305
321
329
325
326
333
344
345
336
331
337
345
345
335
331
336
347
350
342
336
340
349
349
340
336
341
350
350
339
334
340
349
348
340
339
347
354
353
343
338
343
353
352
344
342
348
357
356
347
342
347
358
355
343
337
342
352
351
341
335
338
346
346
337
331
334
341
341
333
330
334
343
342
333
329
335
344
343
333
329
334
344
343
333
328
335
345
344
334
329
335
345
343
334
330
336
343
342
333
330
335
345
345
334
329
335
345
344
335
331
337
345
345
334
331
336
344
344
334
330
337
346
344
334
330
337
345
344
335
332
338
346
344
334
331
337
346
344
334
331
336
345
344
335
331
336
346
344
336
332
337
345
344
335
332
338
348
344
334
330
336
346
344
336
333
339
347
346
336
332
338
347
345
336
332
338
347
347
336
333
338
347
345
337
333
339
348
346
336
333
339
347
345
336
334
342
353
352
341
338
344
353
352
342
339
345
354
351
344
342
346
353
349
340
337
343
350
345
334
331
337
347
346
335
331
337
348
345
335
333
339
349
346
336
335
345
360
369
369
375
389
404
404
386
366
352
341
323
304
297
306
321
324
319
321
332
342
342
333
330
336
344
341
333
331
338
346
346
338
335
340
349
346
336
335
340
348
346
336
334
340
349
347
337
337
346
355
352
342
339
345
353
351
341
341
350
358
356
345
341
348
357
353
340
336
342
351
348
339
335
340
347
342
333
331
334
340
337
329
327
333
342
340
330
328
334
342
340
331
328
335
344
342
331
329
337
345
341
332
330
336
345
342
332
330
336
343
340
331
329
336
344
341
331
329
337
346
342
332
329
337
345
341
331
330
337
345
341
332
330
338
346
341
333
331
337
346
344
332
330
338
347
344
334
332
339
347
344
334
332
339
347
344
333
332
340
349
345
335
333
341
348
344
334
333
340
347
343
335
333
341
349
344
334
333
340
348
343
333
333
340
349
344
334
333
341
349
345
336
334
340
348
344
334
333
340
348
344
334
333
340
348
344
334
333
342
352
350
341
338
345
353
349
340
339
346
353
349
341
342
349
353
348
338
337
346
354
346
334
333
341
349
344
334
333
340
348
344
335
333
340
348
343
335
335
345
357
362
364
372
388
403
402
387
372
360
348
327
305
299
305
317
319
316
321
333
343
340
332
331
338
346
341
332
331
338
346
344
337
337
344
350
345
335
334
342
350
346
336
336
344
351
346
337
339
349
356
351
341
340
348
355
350
339
339
350
359
354
344
342
350
357
352
340
337
345
352
347
338
337
343
348
342
333
332
339
343
338
328
329
337
344
338
329
328
337
344
339
329
329
337
343
338
330
331
338
345
339
331
331
338
344
339
330
331
339
345
339
330
329
337
344
341
331
331
340
346
340
331
331
339
346
341
331
330
339
346
342
333
331
339
345
340
332
332
339
345
339
331
331
340
347
341
332
334
341
346
340
331
332
341
347
341
333
332
340
347
341
333
333
341
348
342
332
332
341
348
342
333
333
342
349
343
333
333
342
348
343
335
334
342
349
343
334
334
341
348
343
334
335
342
348
342
333
333
343
349
344
336
335
342
348
342
334
335
344
352
348
340
339
347
353
348
339
339
348
355
349
340
343
351
354
346
338
338
348
354
345
333
334
341
347
342
333
333
342
348
342
332
333
343
349
343
335
336
347
357
358
359
370
388
403
402
391
379
369
354
331
309
302
308
317
318
317
322
335
342
337
329
331
340
345
339
331
332
340
345
342
336
338
345
350
344
336
336
345
351
344
335
335
344
351
345
335
337
349
357
350
340
339
348
355
348
339
340
351
358
353
343
343
351
357
352
342
340
346
352
346
337
337
345
348
340
332
334
341
343
335
327
329
338
343
337
327
329
338
343
337
329
329
338
344
337
328
329
338
344
338
330
330
340
345
338
329
331
339
344
338
330
331
339
345
338
330
332
341
346
338
330
331
340
346
338
330
331
340
346
339
331
332
340
345
339
331
333
340
346
340
332
333
341
346
338
331
332
341
346
339
331
333
342
347
340
332
333
342
347
339
332
333
342
347
340
332
334
344
348
341
333
334
342
348
341
333
334
343
348
341
332
335
343
349
342
333
333
342
348
342
334
336
345
349
341
333
336
345
350
342
333
336
344
350
343
334
337
346
352
347
339
340
349
354
346
338
340
348
352
345
337
342
352
355
345
337
339
348
351
342
331
332
340
346
339
333
334
342
347
340
333
334
344
349
341
332
335
347
355
354
357
368
387
399
398
391
385
377
360
333
311
304
310
315
313
312
319
333
342
336
329
332
342
346
339
331
333
342
346
339
334
337
346
350
342
335
336
345
348
342
335
336
346
350
341
335
337
349
355
347
339
341
351
354
346
338
340
352
358
350
342
344
352
357
350
342
340
346
349
342
335
338
346
348
339
331
333
342
342
332
325
329
340
343
334
326
329
339
344
336
329
330
339
343
335
328
330
339
344
336
329
331
341
343
335
328
331
340
344
336
330
334
342
345
337
330
333
342
346
337
330
333
342
345
336
330
334
344
347
338
331
333
342
345
337
330
333
342
345
337
330
333
343
346
339
332
336
344
348
339
332
335
344
347
338
331
334
344
347
339
333
336
345
347
338
331
334
344
347
339
332
335
344
348
340
333
336
345
348
340
333
337
345
348
339
332
335
344
347
338
332
335
343
347
339
333
337
344
347
339
333
337
346
348
339
333
337
346
351
344
338
341
351
353
344
337
341
350
353
344
336
341
353
354
343
336
340
350
353
343
333
334
344
347
339
332
334
344
347
339
333
337
345
348
339
333
336
348
352
349
352
367
385
396
396
393
391
385
367
338
315
307
312
313
308
310
319
333
340
333
328
333
343
346
337
331
335
343
345
337
334
339
349
351
342
336
339
348
350
341
335
338
347
350
341
334
338
352
356
346
339
342
352
354
345
338
343
353
357
350
344
346
355
356
347
342
344
350
351
343
337
341
349
349
338
332
335
345
343
332
327
332
341
343
334
327
332
341
342
333
328
332
341
343
335
328
333
344
345
335
329
333
343
345
335
328
333
342
345
336
330
333
344
348
338
331
334
343
345
336
330
334
343
346
337
330
335
345
347
337
331
336
344
345
335
330
335
344
346
337
332
336
345
346
337
331
335
344
346
337
332
336
344
346
336
331
336
345
347
337
331
335
346
347
338
333
336
345
347
339
333
336
346
348
339
333
337
346
348
339
334
339
348
347
337
332
337
346
347
337
332
337
347
347
338
331
336
346
348
338
333
337
347
349
338
333
338
347
349
343
339
343
352
352
343
338
343
351
351
343
337
342
353
354
343
336
340
350
351
342
335
337
345
346
337
332
337
345
346
336
331
335
345
346
336
331
336
346
350
346
349
364
383
392
390
391
394
391
374
343
319
310
313
311
305
307
318
333
339
332
328
335
345
346
336
330
335
344
344
335
333
340
349
349
340
335
340
350
350
339
334
338
349
349
339
334
339
351
353
344
338
343
352
352
343
338
343
353
356
349
345
348
356
356
347
342
345
352
350
340
336
340
349
348
336
331
336
345
344
332
326
331
342
343
334
328
333
341
341
332
327
332
342
343
334
327
333
342
342
332
328
334
343
343
334
329
333
343
344
334
329
333
341
343
335
330
334
343
344
336
330
335
345
345
335
330
336
344
345
335
331
336
346
346
337
332
336
344
345
336
332
336
345
345
337
332
336
346
345
336
331
336
346
346
336
333
337
346
347
336
332
338
346
346
336
331
336
345
347
337
331
336
347
346
337
332
337
347
346
336
332
337
346
345
336
331
338
347
346
336
333
340
347
346
337
332
339
347
347
338
333
338
347
347
337
333
339
349
349
342
339
345
353
352
343
338
343
352
351
341
336
341
354
355
343
337
341
350
350
340
334
336
345
345
337
334
339
347
346
337
333
338
348
346
337
333
337
346
348
343
345
361
382
390
389
391
397
397
379
349
324
315
314
310
303
305
317
332
336
331
327
335
344
343
334
329
335
346
344
335
332
339
350
349
339
335
341
350
349
339
335
340
349
349
340
335
340
350
352
344
340
345
354
352
342
338
344
352
353
347
344
349
357
356
347
342
347
352
350
341
336
341
350
349
337
331
336
346
345
331
325
331
341
341
331
327
333
342
341
332
328
334
343
342
333
328
334
342
341
331
328
335
343
342
332
329
334
343
341
332
329
336
345
343
332
329
334
344
343
334
330
335
345
343
334
330
335
345
344
334
330
336
345
344
333
330
337
345
344
334
331
337
346
344
335
332
338
346
344
334
330
337
346
345
335
331
338
347
345
336
332
337
347
346
336
332
337
346
345
336
333
338
347
345
336
333
339
347
346
336
334
339
347
345
336
333
338
348
347
336
332
338
347
346
337
333
340
348
345
337
332
338
348
347
337
333
339
349
347
339
338
346
355
353
341
337
342
352
351
342
338
344
355
356
345
338
342
351
350
340
337
340
346
343
335
332
339
347
345
335
333
338
347
345
336
332
338
349
349
340
342
357
377
386
385
389
399
402
385
355
331
321
318
311
302
303
315
330
333
329
327
335
344
342
333
329
335
345
343
333
330
340
350
347
337
334
341
349
347
337
335
339
348
346
338
333
339
349
351
342
339
344
353
352
342
338
343
351
350
344
342
348
355
353
345
343
348
353
349
339
337
343
352
350
337
331
337
347
345
333
327
333
342
341
332
327
333
342
341
331
327
332
341
340
331
327
334
342
342
333
330
335
343
341
332
329
336
345
342
333
330
336
345
343
334
331
337
345
343
335
331
336
345
343
334
330
336
345
344
334
331
338
346
343
334
331
337
345
343
334
331
338
346
344
335
330
338
346
345
335
333
340
347
346
335
331
337
346
344
334
331
338
346
345
335
332
338
348
345
335
331
337
346
345
334
332
337
345
344
334
330
337
346
344
336
332
338
347
345
336
333
339
347
345
336
333
339
348
346
336
332
339
348
346
336
333
339
347
346
337
336
345
353
350
340
337
345
353
351
340
336
343
352
353
342
337
343
351
350
339
336
341
348
344
336
332
339
346
344
336
333
339
347
345
336
333
339
348
346
339
340
357
375
383
383
387
398
404
389
361
337
326
321
312
301
300
312
327
331
327
326
335
345
343
333
330
336
345
344
334
331
339
350
349
340
338
343
350
346
337
334
341
350
347
338
336
342
350
350
343
341
346
354
352
343
339
346
354
352
344
343
350
358
355
346
343
349
355
350
340
338
343
352
350
339
333
338
347
346
334
327
332
342
340
330
329
337
343
340
331
329
335
344
341
332
331
336
343
340
331
329
336
344
341
331
328
335
344
341
331
328
335
344
342
333
329
336
345
342
333
330
337
345
342
333
330
336
345
342
333
330
337
345
343
334
331
338
346
343
334
332
338
345
342
334
331
338
346
343
333
330
338
347
345
335
330
338
347
344
334
333
340
348
345
335
332
339
348
345
335
331
339
347
345
336
333
339
347
346
334
332
339
349
345
336
332
340
348
345
335
332
339
348
344
335
333
339
348
345
336
333
340
348
345
336
334
340
348
345
336
336
346
354
351
341
339
345
353
351
340
337
344
352
353
344
339
345
351
349
340
336
341
347
343
334
331
339
347
344
335
333
339
347
345
335
333
340
348
344
337
337
351
370
379
378
385
399
409
395
367
343
331
326
314
300
299
312
328
331
326
326
335
345
343
333
329
336
344
342
333
331
340
351
349
339
335
342
350
347
337
334
341
350
347
337
334
341
350
349
341
340
346
353
350
340
338
344
353
350
343
342
350
357
355
344
342
348
355
349
337
335
343
352
349
338
332
337
346
344
334
330
334
341
338
330
328
336
343
339
330
329
336
343
340
331
329
336
346
342
332
329
337
344
342
331
329
336
344
340
332
329
336
344
341
332
330
337
345
343
333
332
338
347
343
335
332
340
347
344
334
332
339
346
342
333
331
338
346
343
334
332
338
346
343
334
332
338
347
342
334
331
338
346
343
333
331
338
347
344
335
332
340
347
344
334
333
340
347
343
334
333
339
348
345
335
333
340
348
345
335
332
340
348
344
335
333
340
349
345
335
334
341
349
345
335
333
341
348
343
334
333
341
349
346
335
331
339
348
345
336
336
346
355
351
340
337
344
352
348
339
337
344
352
351
343
339
344
351
348
338
337
343
349
342
331
331
340
348
345
334
332
339
346
343
334
334
338
346
343
336
337
349
368
374
374
381
396
408
398
373
352
338
330
315
300
298
310
325
327
323
326
334
344
341
332
330
337
345
342
332
329
337
348
347
338
335
341
349
345
336
334
341
350
347
338
335
341
349
346
340
341
348
355
351
341
339
346
353
350
342
342
351
358
355
345
342
349
358
351
340
338
344
352
350
340
335
339
347
344
334
329
334
342
339
329
326
333
341
338
329
327
334
342
338
329
329
336
343
339
330
329
336
344
340
332
328
336
344
340
331
329
337
345
340
330
329
336
344
340
330
329
337
345
341
331
330
337
345
341
332
330
337
345
342
333
332
338
346
343
333
331
337
346
343
333
331
338
347
343
334
332
339
347
343
334
331
338
346
343
333
331
338
346
343
333
331
339
347
344
335
333
340
347
343
335
334
341
349
345
335
333
340
348
345
336
335
342
349
345
336
335
341
351
346
337
335
341
349
344
335
333
340
348
345
335
333
339
347
344
334
334
344
353
349
339
336
344
351
348
338
338
344
351
349
343
340
345
350
346
338
337
344
349
342
332
331
339
347
343
334
333
341
349
345
335
333
340
348
344
336
337
349
365
371
372
379
395
409
402
379
358
344
335
318
302
298
309
324
327
322
325
334
343
342
334
332
338
345
341
332
330
337
348
346
337
335
343
351
346
336
336
343
350
346
338
334
342
350
346
339
339
347
354
351
341
339
346
354
350
341
342
351
359
353
342
341
350
358
351
338
336
344
353
350
340
336
340
347
343
334
330
336
344
340
330
327
336
343
339
329
327
336
344
340
331
330
337
345
343
332
330
337
345
341
332
330
337
345
341
332
330
338
346
342
331
329
337
346
342
331
330
337
345
341
332
331
338
346
342
334
330
337
346
341
332
331
338
346
342
332
331
338
346
342
333
331
339
346
341
333
333
340
347
343
334
333
340
347
343
334
332
339
348
344
334
332
339
347
344
335
333
339
347
344
336
333
339
346
342
333
332
339
348
345
335
333
339
348
344
335
334
341
349
344
334
334
341
349
345
335
333
341
349
346
336
334
341
348
345
335
334
344
353
350
340
337
345
352
348
339
338
345
353
349
342
341
347
353
349
339
337
344
350
344
333
332
339
347
343
333
331
339
346
343
333
332
340
349
344
334
334
345
361
368
369
376
392
407
402
383
365
352
340
320
302
297
307
320
323
319
323
334
343
341
333
331
339
346
342
333
332
339
347
346
337
335
344
351
346
337
336
343
349
345
337
337
343
350
345
338
339
348
355
351
340
340
348
355
350
341
342
352
360
355
345
343
350
357
352
339
336
343
350
346
337
336
340
346
343
334
331
336
343
339
329
328
336
343
338
329
328
336
343
339
329
327
336
343
339
330
328
336
343
340
331
329
337
344
340
331
329
336
344
340
332
331
340
346
340
331
330
338
346
341
332
331
338
345
340
332
332
338
346
342
331
331
337
345
341
331
331
339
346
342
333
332
339
346
341
332
332
339
347
343
333
333
340
347
343
333
333
340
347
341
332
331
342
349
344
333
333
341
349
343
334
333
341
348
343
334
333
340
348
344
335
334
342
349
344
334
333
342
348
344
334
333
341
349
343
335
335
342
348
343
334
334
342
348
344
335
334
344
354
350
340
339
347
354
350
340
339
346
352
348
341
342
348
352
345
336
336
345
351
345
332
331
340
347
342
333
333
341
348
343
333
332
339
347
343
334
336
346
359
362
364
373
390
405
403
386
369
358
344
323
303
297
307
318
319
317
322
333
341
340
332
331
339
345
340
331
331
340
346
342
335
335
343
350
344
336
336
344
350
345
335
335
343
350
344
336
338
349
356
350
340
339
347
354
349
340
341
353
360
353
343
342
351
357
351
340
338
345
351
347
338
337
343
347
341
333
332
337
342
337
328
329
337
343
337
328
329
338
343
337
329
330
338
344
339
329
329
338
345
340
330
330
338
344
338
330
330
339
345
339
330
330
340
346
340
331
331
340
346
340
331
332
340
346
341
333
332
341
346
341
332
333
341
347
340
332
332
341
347
341
332
332
341
347
341
333
333
341
347
341
333
333
341
347
342
334
334
342
348
343
335
335
342
348
342
333
333
342
348
342
333
334
342
347
341
332
333
341
347
342
334
334
343
349
343
334
335
343
349
343
334
335
344
349
343
335
335
344
349
344
335
335
342
348
343
334
335
344
353
348
338
338
347
352
347
338
339
348
353
347
339
342
350
353
346
338
338
347
354
344
332
332
342
349
343
334
334
343
348
342
333
333
342
347
341
332
334
346
357
359
361
371
388
403
402
390
378
368
354
328
305
299
307
317
317
315
322
335
343
338
331
332
340
345
338
330
331
339
345
341
336
337
345
351
344
335
336
344
349
344
335
336
345
349
341
333
337
349
356
348
340
340
349
354
347
338
340
352
360
352
342
343
352
357
351
341
339
347
351
346
337
339
345
347
339
332
333
339
342
335
327
328
337
343
336
328
330
339
343
336
327
330
340
345
337
329
329
339
344
338
330
331
340
345
339
330
331
339
344
338
329
331
339
345
338
330
331
340
345
339
331
332
340
345
339
331
332
341
346
340
330
331
340
346
338
331
331
341
346
339
331
332
342
347
339
331
333
341
347
340
333
333
342
347
339
331
334
343
348
341
333
334
344
349
341
333
333
342
347
340
333
335
343
348
341
333
334
344
349
341
332
333
343
348
341
333
334
344
349
341
332
334
343
348
341
334
336
344
349
342
336
335
344
349
342
334
336
344
351
346
338
340
349
354
346
339
340
349
354
347
339
343
352
354
343
335
337
348
352
344
332
332
341
347
341
333
334
343
347
340
332
334
343
348
340
332
336
347
355
355
358
371
388
401
400
390
382
375
358
331
308
304
311
316
313
312
320
334
342
336
330
334
343
346
337
329
332
342
346
341
335
338
347
351
342
334
337
347
351
344
336
337
346
350
342
334
338
350
355
347
338
340
350
353
346
339
341
351
358
350
343
344
354
357
348
339
338
346
351
344
336
338
345
347
337
330
333
341
341
332
326
330
339
342
334
327
330
340
343
334
327
330
340
344
335
328
331
339
344
335
329
332
341
345
336
330
331
340
344
336
329
332
342
345
337
329
333
343
345
337
331
334
343
345
337
330
333
342
346
339
331
334
343
347
338
331
333
343
346
338
331
334
344
347
339
333
336
346
348
338
332
335
345
348
339
331
334
344
347
338
331
334
343
347
339
330
334
345
348
340
333
336
345
347
339
332
335
344
347
340
333
335
344
348
339
332
335
344
347
339
332
335
344
347
340
333
336
346
349
340
333
337
346
348
340
334
337
345
349
343
337
341
350
354
346
338
341
350
352
344
337
343
355
355
344
336
340
350
352
343
333
335
345
349
340
333
336
345
348
340
334
339
346
348
339
332
336
347
354
351
353
367
385
397
397
392
388
381
365
336
313
306
310
313
309
309
319
335
340
333
328
334
344
346
336
330
333
342
345
336
333
339
349
351
340
334
338
348
350
341
335
339
348
349
341
335
339
350
355
345
339
342
352
353
345
339
342
352
356
348
342
345
354
356
348
341
342
349
350
342
336
340
348
348
337
331
335
345
343
332
325
330
340
343
333
326
330
340
342
333
328
333
342
343
334
328
333
342
344
335
330
334
343
344
335
329
333
344
346
337
329
333
343
345
335
329
332
342
344
336
330
335
343
345
336
330
333
343
344
336
330
334
344
347
337
332
336
345
346
336
331
335
344
345
338
331
335
343
345
337
331
334
344
346
337
331
335
344
346
338
332
335
345
347
337
331
336
346
347
338
332
337
346
347
338
334
337
346
347
339
333
337
346
349
339
333
337
346
348
338
333
337
347
348
337
331
336
346
348
338
333
336
346
347
338
332
337
346
349
343
338
341
350
352
344
338
342
352
352
342
337
343
355
354
342
335
340
350
351
342
334
336
345
346
339
334
338
346
347
338
332
336
347
348
338
332
337
347
351
347
350
365
384
394
393
393
394
390
371
340
318
310
312
311
306
307
318
334
339
332
329
335
344
344
335
330
334
344
344
335
333
340
350
349
339
334
339
349
349
339
335
340
348
349
339
334
339
350
353
345
340
344
353
353
343
338
343
354
356
348
344
348
356
357
347
342
344
351
350
342
337
342
350
348
336
330
335
346
344
331
325
331
341
341
333
327
334
343
343
332
328
333
342
342
333
327
333
343
342
332
328
334
343
342
333
329
334
343
342
333
328
334
342
343
333
328
334
344
343
333
329
335
344
344
335
330
334
344
344
335
329
335
345
345
336
330
336
345
344
334
330
336
346
345
335
331
335
345
344
334
330
336
346
344
334
330
336
345
344
335
331
336
347
346
335
332
337
347
345
335
332
339
348
347
337
333
338
346
346
337
333
337
347
346
336
331
337
347
346
336
332
339
347
346
336
332
338
347
346
336
333
339
348
346
336
333
339
347
346
340
338
344
353
352
340
335
342
352
350
340
337
344
355
354
342
336
342
351
349
339
335
338
346
345
336
332
337
346
345
336
332
338
346
344
335
331
338
348
349
342
346
362
383
389
388
391
397
396
376
346
322
314
316
312
305
306
319
334
337
331
328
336
345
343
333
330
336
345
343
333
331
340
350
348
338
334
340
349
348
338
333
339
348
347
336
333
340
351
351
343
338
344
353
351
342
339
345
355
355
347
343
348
356
354
345
341
347
353
349
340
337
344
353
349
335
330
337
347
343
330
325
332
342
340
331
328
335
343
341
330
327
334
342
340
330
327
335
345
344
333
330
337
345
342
333
330
338
346
342
332
329
336
344
342
332
330
336
345
342
333
331
337
344
342
333
331
336
344
341
332
331
338
347
343
333
331
338
347
344
334
331
339
347
343
334
331
339
347
344
333
331
339
347
343
334
332
339
348
345
333
332
339
347
344
334
332
339
347
344
334
332
340
347
344
335
332
340
348
344
334
333
340
349
345
335
334
340
349
345
335
334
342
349
345
335
333
342
349
345
336
335
342
349
345
335
334
341
349
345
338
339
346
354
350
340
338
345
353
350
340
338
346
356
352
341
337
343
351
348
338
337
341
347
343
334
332
340
348
344
335
333
341
348
344
335
333
341
348
346
340
345
363
381
386
384
391
401
401
382
349
329
320
318
309
299
304
319
331
333
327
326
336
345
340
332
331
339
346
342
332
332
343
352
348
337
335
342
350
346
336
335
343
350
345
335
334
343
350
349
341
341
347
354
350
341
340
347
354
352
346
345
352
358
353
343
343
350
354
348
339
339
347
354
348
336
331
340
347
343
331
329
337
344
339
330
329
337
343
339
330
329
337
345
340
330
328
337
344
340
331
330
338
344
339
330
330
337
343
339
331
331
338
344
340
331
331
339
346
340
331
331
340
346
340
331
331
339
345
340
330
331
338
345
340
331
331
340
347
342
332
332
339
347
342
332
331
340
347
341
332
332
340
347
341
333
333
341
347
342
332
333
342
348
343
334
334
342
349
342
332
331
340
347
341
333
332
341
348
342
332
333
342
349
343
334
334
342
348
343
333
333
342
348
342
334
334
342
348
342
333
333
341
348
343
334
334
342
348
342
334
338
347
353
347
337
337
345
353
347
338
338
346
353
350
340
338
346
352
346
337
337
344
347
340
332
333
342
347
342
333
333
343
348
342
335
335
342
348
342
337
344
361
377
381
381
390
403
404
383
356
336
327
321
308
298
302
318
331
330
325
328
339
346
340
332
332
340
346
340
331
332
344
352
345
336
336
344
350
344
336
337
345
350
344
336
337
346
351
346
340
342
351
355
348
338
340
349
354
348
342
345
353
358
352
343
344
352
355
345
336
337
346
352
345
334
333
342
347
342
331
329
336
343
337
331
331
340
344
337
329
330
339
344
336
328
332
340
345
337
330
331
340
344
337
328
330
339
344
338
330
331
340
347
339
332
333
341
346
339
330
332
341
346
338
331
333
341
346
338
331
333
341
346
339
332
333
342
347
340
332
333
341
346
340
331
333
342
347
339
331
333
343
347
339
332
334
343
347
340
332
334
343
348
341
334
335
343
349
340
332
334
343
346
338
331
333
344
348
340
331
334
343
347
340
333
335
343
348
341
333
335
344
348
341
333
335
344
349
341
334
335
345
348
340
333
336
345
349
341
334
339
349
353
346
338
340
349
352
345
338
340
349
352
347
340
341
348
352
345
337
340
347
348
339
332
335
343
347
339
332
334
343
348
339
332
334
344
349
342
337
343
360
373
375
377
389
404
407
387
362
344
336
324
308
298
302
318
329
326
323
329
340
346
338
330
333
342
346
337
331
334
346
352
343
335
337
347
350
341
334
337
347
350
342
335
337
346
350
343
339
343
352
354
345
338
342
350
353
346
341
345
356
357
349
342
344
353
355
343
335
338
348
352
343
335
335
342
345
337
330
331
338
341
333
326
330
340
344
335
328
331
340
343
334
328
332
341
344
335
328
332
342
344
335
329
333
342
344
335
329
333
342
344
336
329
332
341
344
335
329
333
343
345
336
330
333
343
345
336
329
335
344
346
336
331
335
344
346
337
330
334
345
346
336
330
334
344
346
337
331
335
345
347
338
332
336
345
346
338
333
338
345
348
339
332
336
346
347
339
333
336
346
347
338
332
337
345
347
337
332
337
346
348
338
333
337
345
347
338
333
336
346
348
339
334
338
347
348
339
333
337
346
348
338
333
337
346
347
339
333
339
351
352
343
338
342
351
351
342
336
341
350
352
344
340
343
349
349
340
335
340
348
345
334
330
336
346
347
338
332
336
345
346
335
330
336
345
347
337
334
341
357
368
369
373
386
404
407
389
367
352
341
325
305
297
303
318
324
321
320
328
340
343
335
330
334
344
343
333
329
334
344
347
340
335
339
348
348
338
334
339
347
347
340
334
338
347
349
339
336
342
352
351
342
338
344
352
352
342
340
348
358
356
347
342
347
357
356
343
336
341
351
351
341
336
338
346
345
336
332
335
342
341
332
328
334
342
341
332
327
333
342
341
332
329
334
343
342
332
328
334
343
343
332
328
334
343
342
334
329
334
343
343
334
329
335
345
344
335
330
336
344
342
332
329
336
344
343
335
329
335
344
344
334
331
336
345
344
335
331
336
345
344
334
331
337
345
344
334
330
337
347
346
335
332
339
348
345
336
332
338
347
345
336
333
338
347
345
336
332
337
346
344
334
332
339
348
346
337
333
338
346
345
335
333
340
349
346
336
333
339
347
346
336
334
340
348
346
337
333
340
348
347
337
333
339
348
346
336
334
342
352
350
341
338
344
352
350
340
338
343
352
350
342
341
347
352
349
339
337
344
352
347
335
331
338
347
345
335
332
339
348
346
336
333
340
348
346
336
335
343
357
364
365
372
388
404
405
391
374
362
350
330
308
299
303
317
320
316
319
331
341
341
333
331
337
347
343
333
330
338
347
346
339
336
343
351
347
338
335
342
350
346
337
335
342
349
346
336
337
346
356
352
341
338
346
354
351
341
339
349
358
354
346
345
351
358
353
341
337
344
351
349
339
338
342
346
341
333
332
337
342
337
328
326
334
343
339
329
328
334
342
339
330
328
336
344
342
330
329
336
344
340
331
329
336
345
341
332
329
337
345
341
331
330
338
345
341
332
330
339
347
343
333
331
338
345
341
331
330
339
347
342
333
331
339
347
342
333
332
339
347
342
333
332
340
347
343
334
333
340
348
345
334
332
341
348
343
334
332
339
346
342
332
332
340
347
342
333
332
340
347
343
333
332
340
347
344
334
334
341
348
344
334
333
342
349
343
333
333
340
347
342
333
332
340
348
345
335
335
341
347
342
333
333
341
348
343
334
334
343
352
349
339
339
346
353
349
340
338
346
352
347
338
341
349
353
346
337
337
346
353
346
335
332
340
347
344
336
335
342
348
344
334
333
341
349
345
337
335
345
356
359
360
369
387
401
402
393
381
372
357
333
309
301
307
316
317
314
319
333
342
338
330
331
340
345
340
331
332
340
346
343
336
338
346
351
345
335
336
345
352
344
335
335
344
350
345
336
337
347
354
348
338
338
348
353
347
338
339
350
358
352
343
344
352
357
350
340
337
345
352
346
336
336
344
347
339
331
332
339
342
334
327
328
338
344
337
328
329
338
344
338
329
330
338
343
337
330
330
338
343
337
329
330
339
345
338
330
331
339
345
338
330
332
340
346
340
331
331
341
346
339
331
331
341
346
338
329
330
340
346
339
330
332
342
347
339
330
332
341
347
340
332
333
342
347
340
331
333
343
348
340
332
333
342
347
339
332
335
343
346
338
331
334
343
348
340
332
333
342
347
340
332
334
344
349
341
333
335
344
348
340
332
334
344
348
340
333
335
344
349
340
334
335
343
347
341
333
336
344
348
342
333
336
345
349
341
333
336
344
351
345
338
341
349
353
345
338
340
350
354
345
337
341
351
353
343
336
339
349
353
344
334
335
344
348
341
334
335
343
347
340
334
337
345
349
340
333
336
347
354
353
355
369
387
400
399
393
388
380
364
334
311
305
309
313
311
312
320
334
340
334
330
334
343
345
336
330
336
343
346
338
334
339
348
351
342
335
337
347
350
342
333
336
346
349
341
334
338
351
355
347
340
343
352
356
347
339
342
353
359
351
344
346
355
357
348
341
341
348
350
342
336
338
347
347
336
330
334
342
343
332
325
328
339
342
334
328
332
340
343
334
328
332
342
345
335
328
332
341
344
335
329
332
342
344
335
328
333
342
345
336
329
334
343
345
335
330
332
342
345
337
330
333
343
346
336
330
335
344
346
337
330
334
344
345
336
330
334
343
345
336
331
334
344
345
337
332
336
345
347
338
331
336
344
346
336
331
335
345
346
337
332
335
343
344
336
331
336
345
346
338
333
336
345
346
336
330
336
346
347
337
332
337
347
347
338
332
337
347
347
337
332
337
345
346
337
333
337
347
347
338
333
337
347
348
338
332
337
347
349
342
339
344
353
352
342
338
343
351
352
343
337
343
355
354
344
337
341
351
352
341
333
336
346
346
337
332
337
348
348
337
332
336
346
346
337
333
337
347
350
345
350
366
385
394
392
392
392
387
368
338
316
310
313
312
306
308
321
335
339
331
329
337
346
345
335
331
335
344
344
334
333
341
351
350
339
335
341
349
349
340
336
341
350
349
339
336
341
352
353
344
339
344
353
352
342
338
343
353
354
345
341
347
356
355
345
341
344
351
349
339
336
341
351
347
335
329
335
345
342
330
326
333
343
341
331
326
333
342
341
332
328
333
342
340
331
328
334
343
341
331
327
335
344
342
332
328
335
344
343
333
329
335
342
341
332
330
335
344
342
332
328
335
344
343
333
330
335
344
343
334
330
336
345
343
334
330
337
344
342
334
331
337
345
343
334
331
337
346
343
334
331
338
346
344
334
331
337
345
343
334
331
338
346
344
334
332
338
346
344
334
331
338
346
344
335
333
339
347
345
336
332
339
347
346
336
333
339
348
346
336
332
339
348
345
335
332
339
347
345
336
333
339
348
346
336
334
340
348
346
338
337
345
353
350
339
337
343
351
348
339
337
344
356
353
340
335
342
351
349
339
334
339
346
343
334
332
339
347
343
335
333
340
346
344
335
333
339
347
347
343
348
365
384
389
388
392
399
394
372
341
320
315
315
309
301
306
320
335
335
328
328
336
345
342
333
330
336
344
341
332
332
342
350
347
337
335
342
350
346
336
335
342
350
345
336
336
343
351
349
341
340
347
354
350
340
338
346
355
353
346
344
351
357
352
343
343
349
353
348
338
338
345
352
347
336
333
341
347
342
330
327
334
343
339
329
328
336
343
339
329
328
338
344
339
330
330
337
344
340
330
329
338
344
340
329
329
337
345
340
330
330
338
345
340
331
330
338
346
341
331
331
338
345
340
331
330
338
346
341
332
332
340
346
341
332
332
341
347
340
331
330
340
346
341
332
332
340
347
341
332
332
341
347
342
333
332
340
346
342
332
332
341
349
342
332
333
341
347
341
333
333
341
347
342
333
333
342
348
342
333
333
342
348
343
335
336
344
349
343
334
334
343
350
343
334
334
343
349
342
333
333
342
349
343
334
334
343
351
344
338
341
349
354
347
338
339
348
353
347
338
339
348
356
351
340
339
348
353
346
338
337
344
348
342
333
335
343
348
342
333
334
342
347
343
333
334
342
349
345
340
347
364
381
384
384
392
402
399
376
347
328
321
317
307
300
307
323
334
331
326
329
340
347
340
330
331
340
347
341
332
333
344
352
345
336
337
346
351
344
337
338
347
352
344
336
337
345
351
346
340
341
349
353
347
338
340
349
353
348
342
346
354
358
350
342
345
354
355
345
336
338
347
353
345
333
333
342
347
340
329
329
337
342
336
329
331
339
344
336
329
330
340
344
336
328
330
339
343
337
329
331
340
345
337
329
331
340
345
337
328
331
342
347
337
328
331
340
345
337
329
330
339
344
337
330
332
341
346
338
330
332
341
346
338
330
331
340
345
337
330
332
342
347
338
330
333
342
347
339
332
333
342
347
339
332
335
344
348
340
333
335
345
348
340
334
335
344
347
339
332
335
343
347
339
332
335
344
349
341
333
336
345
349
341
333
336
345
349
341
333
335
343
347
340
333
337
346
348
339
333
336
345
349
341
334
337
345
348
340
335
341
351
354
346
338
341
349
353
344
338
342
349
353
347
338
339
348
351
344
338
340
346
347
337
332
336
344
346
337
331
335
344
347
338
331
335
345
348
340
336
344
363
376
378
381
392
405
402
380
354
336
329
319
304
298
305
321
330
326
325
331
341
345
336
329
332
342
345
337
330
334
347
351
342
334
338
348
350
341
334
338
346
348
341
335
338
347
349
343
340
344
353
354
345
340
344
352
353
345
342
347
355
358
348
342
345
354
353
342
336
341
350
351
343
335
336
344
346
338
330
331
339
341
333
327
331
340
342
334
328
332
341
342
333
328
331
341
343
335
329
333
342
343
334
328
332
342
343
334
328
333
342
344
334
329
334
344
345
336
330
334
343
344
336
330
334
343
345
336
330
335
344
345
336
331
335
344
346
336
332
337
345
345
336
331
336
345
347
337
331
335
345
346
337
331
336
346
347
338
332
336
345
347
337
332
337
346
346
337
332
338
347
347
338
333
336
345
345
338
333
337
347
347
338
332
337
347
348
338
333
338
348
348
338
333
338
347
347
337
332
337
346
346
337
332
338
348
348
338
333
340
352
353
343
338
342
353
352
342
337
342
352
352
345
342
344
352
352
342
337
342
349
346
336
332
338
348
348
337
333
338
347
347
337
332
339
348
346
337
336
345
363
373
373
378
391
406
404
383
360
345
335
321
304
298
305
320
326
322
323
333
344
345
336
330
335
345
343
334
330
336
347
348
340
335
340
349
349
340
336
342
351
349
338
334
341
350
349
341
339
346
354
352
342
339
345
354
352
343
341
349
358
358
347
343
348
357
353
341
335
340
350
350
339
334
337
345
344
336
331
333
341
340
331
328
334
343
341
332
328
334
343
341
332
327
334
342
341
332
328
335
343
342
331
328
335
344
342
333
329
336
344
342
332
329
335
344
342
332
328
335
344
342
332
329
336
346
343
333
329
336
346
344
334
330
336
344
343
335
332
337
344
343
336
333
337
344
342
336
334
339
346
344
336
333
338
345
344
336
334
337
345
344
336
333
338
346
345
337
333
338
345
344
336
333
339
347
345
337
333
338
346
345
337
334
338
346
345
336
333
338
345
344
336
333
338
347
345
337
335
340
347
345
337
334
339
347
345
337
335
343
353
351
342
339
345
352
349
341
339
345
352
350
344
343
346
351
348
341
338
344
351
344
334
332
338
345
343
335
333
339
346
344
335
333
338
346
343
336
336
345
359
366
367
376
391
405
404
387
368
353
340
323
304
299
305
317
323
321
323
332
341
340
333
331
337
344
342
334
331
337
344
345
339
337
342
348
346
338
336
342
348
345
337
336
343
350
346
339
341
348
354
350
342
341
347
353
350
342
342
350
359
356
347
344
349
355
351
340
337
343
350
347
339
337
340
344
341
334
333
336
341
338
331
329
335
342
339
330
329
336
342
339
331
329
336
344
340
331
330
337
343
339
330
329
336
344
341
333
331
337
344
342
334
330
336
344
340
332
331
339
345
341
333
331
338
344
341
334
333
338
345
342
334
333
339
347
343
334
332
338
344
340
333
333
340
347
343
334
332
340
347
342
332
332
339
347
342
334
333
341
348
342
333
332
341
349
343
333
333
341
348
344
334
334
342
348
343
333
333
341
350
345
335
334
343
349
344
334
334
343
349
344
335
335
343
349
343
334
334
343
350
345
335
334
342
349
344
335
334
344
352
349
339
339
346
352
347
339
339
347
353
347
340
342
349
353
346
337
338
346
351
343
332
332
340
347
342
334
334
341
346
341
333
333
342
348
342
334
335
346
358
362
363
373
389
404
403
389
374
363
348
326
306
299
307
318
320
317
323
335
343
340
333
332
340
345
340
330
331
340
347
343
336
337
345
350
344
336
335
345
351
344
335
335
344
350
344
336
338
349
355
348
339
340
348
354
349
340
341
351
357
353
344
344
352
358
352
340
338
345
352
348
339
339
344
347
341
333
334
339
342
336
327
328
337
344
338
329
330
339
345
337
329
330
339
344
337
330
331
339
344
338
331
332
339
345
339
331
331
339
345
338
330
331
340
346
340
332
333
342
347
339
332
334
343
346
339
330
332
340
345
340
331
331
340
347
341
332
333
342
347
340
332
333
341
347
339
331
332
342
347
341
332
333
341
347
340
334
335
343
348
341
333
334
343
348
342
333
334
342
348
341
332
334
343
348
341
333
334
344
349
342
334
335
344
349
342
334
335
344
349
342
333
335
343
349
342
333
335
344
349
342
334
336
343
348
341
334
336
346
353
346
339
340
348
352
345
338
340
348
353
346
338
343
352
353
344
336
339
347
352
343
333
334
343
347
340
333
334
342
347
340
333
334
342
347
340
333
335
347
356
356
358
371
389
402
400
390
379
371
355
330
308
301
308
315
314
312
320
333
341
336
330
332
341
345
338
329
331
340
344
338
334
338
346
350
343
335
337
346
350
342
336
338
346
349
341
333
338
351
355
346
338
341
350
354
345
338
341
353
358
350
344
346
354
357
348
339
339
348
352
343
335
338
346
347
339
332
335
342
343
334
326
329
338
343
335
328
329
338
343
335
327
331
340
343
334
327
330
340
344
336
328
332
341
344
336
328
330
339
344
337
328
331
340
344
336
329
332
341
345
337
329
332
342
346
337
330
333
341
344
336
330
333
342
345
337
330
333
343
347
338
330
333
343
346
338
331
334
344
347
339
331
335
345
348
340
332
335
344
348
339
331
333
344
348
339
332
335
345
347
339
333
335
345
348
339
332
335
345
348
338
332
335
345
349
340
333
336
345
348
340
333
336
345
348
340
334
335
345
347
339
333
336
345
347
339
333
336
346
351
346
339
342
350
352
344
337
339
349
353
344
337
342
353
353
342
336
339
348
351
341
332
334
344
347
339
333
336
346
348
339
332
336
345
349
340
333
335
347
353
352
355
369
388
400
398
392
386
379
362
334
312
306
310
314
312
312
321
335
341
334
332
335
344
345
336
330
334
344
346
338
334
339
349
351
343
335
339
349
351
342
336
338
347
349
342
334
338
351
355
346
339
342
351
354
346
340
342
353
358
349
343
346
355
357
348
340
341
349
352
343
337
340
349
348
336
330
335
344
344
333
327
331
340
342
334
327
330
341
343
334
328
332
341
343
334
328
332
342
344
335
329
334
343
344
335
330
332
341
343
335
329
332
342
344
335
329
333
343
346
336
329
333
342
344
335
330
334
344
346
336
329
333
344
345
336
330
335
345
346
337
331
335
344
346
337
331
335
345
348
338
332
336
345
346
337
332
336
345
347
338
333
337
346
347
338
332
337
347
349
339
333
335
345
346
338
332
337
346
347
339
333
337
346
348
339
333
337
345
348
339
333
336
346
347
337
331
336
346
347
338
332
338
347
348
339
334
338
347
349
343
339
342
351
352
343
337
341
351
353
343
338
345
357
355
344
337
341
351
353
344
335
336
345
346
337
332
336
346
348
338
332
337
346
348
338
333
337
347
351
348
352
367
386
395
395
394
391
386
368
339
317
309
312
312
307
308
319
334
340
332
328
336
346
346
336
331
335
344
345
337
335
341
350
351
341
336
340
349
350
342
336
341
349
349
339
334
339
351
353
345
338
343
353
354
344
339
344
354
357
349
344
347
355
355
346
342
343
351
351
342
338
342
352
349
337
330
335
345
344
333
326
332
341
342
333
328
333
343
343
334
329
333
341
343
333
328
333
343
342
333
328
332
342
343
334
329
336
344
344
334
329
333
343
344
335
330
334
342
343
333
329
335
345
345
335
330
336
346
346
336
331
335
344
344
336
332
336
345
345
336
332
336
344
345
336
332
336
345
345
335
330
335
345
346
336
331
336
346
345
336
332
337
346
346
337
331
335
345
346
337
331
336
346
347
337
331
335
345
346
337
331
337
346
346
337
333
337
347
347
338
333
338
347
346
336
332
337
347
347
338
334
339
348
348
338
333
339
347
348
340
337
343
352
352
341
336
341
353
351
341
336
341
354
354
343
336
341
350
349
341
334
336
345
346
336
332
337
347
346
337
332
337
347
346
337
333
337
346
349
344
347
362
382
392
392
393
397
393
374
344
322
313
315
313
305
306
319
334
339
332
329
336
345
345
335
331
337
345
346
335
332
340
351
350
339
335
341
350
349
339
335
339
349
349
339
334
339
350
352
344
340
345
353
353
343
338
343
353
356
347
344
348
356
355
345
340
344
350
350
339
335
340
351
349
338
332
338
347
344
332
328
332
342
342
332
328
333
341
341
332
328
334
343
343
331
327
333
342
342
332
327
333
343
344
332
328
334
344
344
335
332
335
343
343
334
330
336
344
344
334
329
334
344
345
333
329
334
345
343
334
330
336
346
345
335
331
336
345
344
335
331
336
345
345
336
331
336
345
344
334
330
336
346
345
335
330
336
346
346
336
333
339
347
347
336
332
337
347
346
336
331
337
347
346
336
332
338
347
346
336
332
338
347
346
336
332
337
346
345
336
332
337
346
346
336
333
338
347
346
336
332
338
347
346
337
331
338
349
347
339
337
344
353
352
342
338
344
353
351
341
336
342
354
354
342
336
341
351
352
342
337
339
346
345
336
332
338
347
346
337
332
337
346
346
336
332
338
347
348
342
345
360
379
387
386
390
396
397
380
350
327
317
316
311
303
304
317
332
336
329
327
335
345
343
333
329
335
345
343
333
330
340
350
349
339
335
341
351
349
338
333
339
349
347
338
333
339
350
352
344
339
345
354
351
341
337
344
353
354
347
343
349
357
355
347
343
347
353
350
339
336
342
353
350
336
331
337
346
343
331
326
333
342
341
331
327
332
342
341
331
326
333
343
343
333
328
334
343
342
332
328
334
343
343
332
328
335
344
342
333
330
337
345
343
334
329
335
343
342
332
328
335
346
344
333
329
335
344
343
333
329
336
345
343
333
329
335
343
342
333
330
336
345
343
333
330
336
346
345
335
331
337
346
344
335
333
339
347
344
335
332
339
347
345
336
332
338
347
345
335
332
338
348
347
336
332
338
348
348
336
332
339
347
346
337
333
339
347
345
336
333
339
348
346
336
333
339
348
346
336
333
339
347
345
335
332
340
348
346
337
337
345
354
351
341
337
344
352
350
340
338
343
354
356
342
337
343
352
350
340
336
340
347
344
335
332
337
346
344
336
332
337
347
345
335
333
340
348
347
341
343
358
377
384
384
388
399
402
384
354
331
320
317
311
299
302
315
329
333
326
326
333
344
343
333
329
335
345
343
333
331
339
349
347
337
335
341
349
347
337
334
341
349
347
337
335
342
350
349
342
339
345
353
351
342
338
345
354
353
346
344
350
358
356
346
343
348
354
349
339
337
343
352
350
337
334
338
347
344
333
328
334
343
341
331
328
334
342
340
331
328
335
343
341
331
328
335
343
341
331
328
334
343
341
333
330
337
345
341
332
330
336
344
342
333
329
336
344
342
332
330
337
345
343
333
331
337
345
343
333
330
337
346
344
334
331
337
345
343
334
332
338
348
345
335
332
338
346
344
335
332
338
347
344
334
332
339
348
345
335
332
339
347
345
336
333
339
347
345
337
334
340
349
346
335
333
340
349
345
335
332
340
349
346
336
334
340
348
346
336
333
340
347
346
335
332
339
348
345
336
333
341
350
346
336
335
340
348
345
337
338
347
354
351
341
338
346
353
351
341
338
344
354
353
343
338
344
353
350
339
336
341
347
345
335
333
339
348
345
335
333
339
348
345
336
332
338
347
346
339
341
355
374
381
380
387
400
406
391
362
340
329
323
312
300
301
315
330
331
327
325
335
345
343
333
330
338
346
342
334
329
338
349
348
337
334
341
349
346
337
334
341
349
346
337
334
341
349
348
340
339
345
353
350
339
337
345
353
351
344
344
352
358
354
344
341
348
355
349
338
335
343
351
348
336
331
337
346
343
332
328
334
342
339
330
330
335
342
339
330
328
336
344
342
330
328
336
343
341
332
330
336
345
341
331
329
337
345
341
333
329
336
344
341
332
330
337
344
342
332
329
337
345
342
332
330
337
346
342
333
331
337
346
342
333
331
337
345
342
332
330
337
345
342
332
329
337
346
343
333
331
339
346
343
333
332
339
348
343
333
332
340
348
344
334
332
339
347
344
334
332
340
348
344
335
332
340
348
344
334
332
340
348
345
335
333
341
348
345
335
333
340
349
345
336
333
340
347
344
335
332
340
349
345
335
334
341
349
345
335
336
345
354
349
339
337
345
353
348
338
336
345
353
351
342
338
344
352
348
339
337
344
349
344
333
332
340
349
345
335
333
340
348
344
334
332
339
347
344
337
340
354
371
377
378
385
401
409
395
368
346
334
326
312
299
300
314
328
329
324
326
336
346
343
332
329
337
345
341
331
329
338
349
347
338
337
343
351
346
338
336
342
350
346
337
335
342
349
346
339
340
348
355
350
341
340
348
354
349
342
343
351
358
353
344
344
351
357
349
338
337
345
353
349
338
334
340
348
343
332
328
335
342
337
328
326
334
341
337
330
328
335
343
338
329
328
336
344
340
330
330
338
344
338
329
329
338
345
340
329
329
337
345
340
330
330
338
345
341
332
330
338
346
342
332
330
338
346
341
331
330
339
346
341
332
331
339
346
341
332
333
341
347
342
332
331
339
347
343
333
333
341
348
343
333
333
341
348
343
333
332
341
347
342
334
333
341
347
341
332
332
341
348
342
333
333
341
348
342
333
332
340
346
341
334
333
342
348
343
334
334
344
348
342
332
333
341
349
344
335
333
341
348
343
334
333
341
348
343
335
336
347
354
347
338
338
346
353
347
338
338
347
354
350
343
340
346
351
346
338
338
346
350
343
333
333
342
348
342
333
333
341
348
343
334
333
341
348
342
336
339
353
368
371
373
383
400
409
397
372
353
340
330
313
299
299
312
325
326
323
326
337
346
341
332
332
341
347
340
331
332
341
350
346
337
337
345
350
345
336
337
345
352
346
336
335
343
349
345
338
341
349
355
350
339
340
348
354
347
340
343
353
358
351
342
342
351
357
347
337
337
346
352
346
336
334
340
346
340
331
330
337
342
336
327
328
338
344
337
328
329
338
344
338
329
329
336
342
338
330
330
339
344
338
329
331
340
345
339
330
332
341
346
338
331
332
340
346
339
331
332
341
347
340
332
333
342
347
339
330
332
341
346
339
331
333
342
346
339
331
332
341
347
340
332
333
343
348
341
332
334
342
348
341
333
333
343
348
340
333
335
342
348
340
332
333
342
347
341
332
334
343
347
340
332
334
342
348
342
333
334
343
348
341
333
335
344
348
341
332
334
343
349
341
333
334
344
348
341
333
335
343
349
341
333
334
344
348
341
334
337
350
356
348
338
339
348
353
345
337
339
348
353
347
342
342
349
352
344
336
338
348
350
339
331
334
343
348
341
333
335
343
348
340
333
335
343
347
340
333
338
351
364
367
369
380
397
410
398
378
360
348
336
315
299
299
311
323
322
319
325
337
343
339
331
333
342
345
338
331
333
342
348
342
335
337
346
350
342
335
338
346
351
343
335
336
346
350
343
337
341
351
355
346
339
341
350
354
346
339
343
355
358
350
342
344
353
358
348
338
339
348
353
345
336
336
343
345
338
332
333
339
342
334
327
330
339
342
335
328
330
338
341
334
328
331
340
343
335
328
331
341
344
335
328
332
342
345
336
328
331
340
345
338
331
333
342
345
336
329
333
343
347
339
331
333
342
345
337
331
334
343
346
337
330
334
343
346
338
331
333
342
346
339
333
336
344
347
338
331
334
344
347
338
330
334
344
347
337
330
335
345
347
338
332
336
345
347
338
332
335
344
348
341
333
335
345
348
340
332
335
344
347
338
332
335
345
347
338
332
336
346
348
339
333
337
346
347
338
333
336
345
348
339
332
336
346
349
340
333
337
348
353
344
337
340
349
352
343
337
340
349
351
344
341
345
351
351
341
336
341
350
351
338
331
335
345
347
338
331
334
344
346
337
331
336
345
347
338
332
339
352
360
362
366
379
397
407
398
381
367
358
340
316
301
302
312
320
317
318
326
340
343
336
332
335
342
343
334
328
332
342
345
338
334
339
348
350
340
335
339
350
350
339
333
338
348
349
339
334
341
352
354
344
338
343
352
353
344
339
344
355
357
347
341
346
355
356
346
338
341
349
350
342
336
339
346
346
336
331
335
341
341
332
328
333
343
344
334
328
333
342
342
334
327
332
342
343
334
328
333
342
342
333
329
334
343
343
333
329
335
344
344
334
329
333
344
344
335
331
335
344
344
335
331
336
345
344
334
330
335
345
345
336
331
336
346
345
335
330
336
345
346
336
332
337
347
346
336
331
336
347
347
337
332
338
347
346
337
333
338
346
345
335
331
337
346
345
335
332
337
347
346
336
332
337
347
347
336
331
336
345
345
335
331
337
347
346
335
331
337
347
346
336
332
338
347
346
337
333
338
348
348
338
333
339
348
347
338
334
340
350
352
344
339
344
352
350
341
337
343
352
351
341
338
346
353
350
340
336
343
351
350
337
331
337
347
346
336
331
339
348
345
335
331
338
347
344
334
332
340
351
355
355
362
379
397
403
395
386
378
368
345
318
304
305
313
316
312
315
327
340
339
332
330
338
345
343
335
331
337
345
344
337
336
342
350
348
338
335
342
350
347
337
334
341
350
347
337
335
344
354
352
342
339
345
353
352
342
339
347
358
356
347
343
349
357
353
343
338
343
350
349
339
337
344
349
344
333
331
339
343
338
328
326
334
343
339
329
328
335
342
338
330
329
336
345
341
330
329
335
344
341
331
328
336
345
341
330
328
336
344
341
332
331
338
345
342
333
331
339
346
342
334
331
338
345
341
332
330
338
345
342
332
330
338
345
342
333
330
338
346
342
332
330
338
345
342
332
330
339
347
343
334
332
340
347
343
333
333
340
348
343
333
332
340
348
344
335
333
341
348
344
335
334
340
347
343
335
334
341
348
344
334
334
342
350
346
335
335
343
350
344
333
332
341
349
344
335
334
342
349
345
334
333
342
349
343
335
334
341
349
347
339
338
346
353
347
337
337
346
353
348
337
338
349
355
348
337
336
344
351
347
335
332
339
347
341
332
332
341
347
341
331
331
339
346
340
331
331
342
351
349
348
358
377
393
395
391
388
383
371
345
318
305
307
311
309
307
313
327
338
335
329
331
338
343
338
330
331
339
345
339
332
336
345
350
343
334
335
344
350
343
334
336
345
351
344
334
336
347
354
349
340
340
349
353
346
338
340
349
358
352
344
343
351
357
350
341
340
346
351
343
336
338
346
350
340
330
332
341
344
335
325
327
337
342
334
326
328
338
343
336
328
328
337
342
335
327
329
338
343
336
327
329
339
345
336
327
329
339
345
337
329
331
339
345
337
330
331
340
345
338
330
332
341
345
338
329
331
340
345
337
330
332
341
347
339
330
333
342
347
339
331
333
342
346
339
331
333
342
346
338
331
334
343
347
339
332
334
343
347
339
332
335
343
347
339
331
335
344
347
339
332
335
344
348
340
331
334
344
348
339
332
335
343
347
339
332
336
344
347
339
332
335
343
347
338
332
334
343
347
339
333
336
344
348
339
332
336
346
349
343
338
343
350
352
343
335
338
348
352
343
336
340
352
356
346
337
340
349
352
343
335
335
343
347
337
331
335
344
347
338
332
336
346
348
338
333
337
346
351
346
346
360
380
393
392
392
395
394
379
351
325
314
314
313
305
304
314
330
338
331
327
333
343
345
335
328
333
344
345
336
331
337
349
351
341
335
339
348
349
339
333
338
348
349
339
333
338
349
352
344
338
343
351
352
344
338
342
351
355
348
343
346
355
356
347
342
344
350
350
339
334
339
349
349
336
330
335
345
344
333
326
330
340
342
332
328
331
340
341
333
327
332
342
343
333
327
332
342
342
333
327
332
342
343
333
327
333
342
343
333
328
333
343
344
334
329
334
343
343
334
329
333
343
343
333
328
335
344
345
335
330
335
344
345
335
331
335
345
344
334
329
334
343
343
334
330
335
344
343
334
330
336
345
345
335
330
336
345
344
335
332
338
347
346
335
331
337
346
345
336
331
337
346
345
336
332
336
346
345
336
331
336
346
347
336
330
335
345
345
335
331
337
346
345
335
332
338
347
345
335
332
338
347
345
336
332
339
347
346
337
336
344
353
350
339
336
343
352
350
340
337
343
354
354
342
336
341
351
350
341
336
339
345
344
334
332
338
346
344
335
331
337
348
345
335
332
340
348
347
341
345
360
379
385
385
390
399
401
384
354
331
321
320
312
302
303
316
331
334
328
327
336
345
342
331
328
337
345
342
332
330
340
350
348
337
334
341
350
347
338
335
342
350
347
337
335
342
351
351
342
340
346
352
350
341
338
345
353
352
345
344
350
358
354
345
343
349
354
349
338
336
344
352
349
337
332
338
345
342
331
327
334
342
338
329
328
335
343
340
331
329
336
344
341
331
329
337
345
342
333
331
338
346
342
332
330
337
346
342
332
330
337
344
341
332
331
338
346
341
332
330
337
345
341
332
330
337
345
341
331
330
338
345
342
332
331
339
347
343
334
332
339
346
342
333
332
340
347
344
333
331
339
346
341
333
332
339
346
342
332
331
338
345
342
333
332
339
347
343
333
333
340
346
342
333
332
340
347
342
332
331
340
347
342
333
334
341
348
342
332
332
339
348
342
333
333
341
348
343
333
331
340
348
342
333
332
340
348
343
335
337
346
353
347
338
337
345
352
346
337
336
346
354
351
341
338
344
350
345
337
337
342
346
339
332
332
341
347
341
331
332
339
345
339
331
331
339
346
343
336
341
357
374
379
379
388
401
406
387
358
336
327
320
308
297
301
316
328
328
323
326
338
345
339
330
332
340
344
337
329
329
340
349
344
334
334
344
350
343
334
335
344
349
343
334
334
343
349
345
339
340
347
354
347
338
339
348
354
348
342
345
353
358
352
342
343
351
355
346
336
337
347
352
344
333
332
340
346
339
328
327
335
340
335
327
327
336
341
335
327
329
338
343
337
328
329
338
342
337
329
329
338
343
336
328
329
338
343
336
328
331
340
344
336
329
332
340
345
337
329
330
340
344
337
330
331
340
344
337
329
332
