0
519
511
509
514
515
510
504
510
509
503
498
503
508
507
499
501
509
512
505
498
503
512
510
502
501
508
512
506
500
504
513
512
503
500
507
514
511
501
504
512
513
507
502
506
515
512
503
501
507
515
511
503
504
513
516
509
501
505
514
513
505
501
507
515
512
505
503
510
515
509
503
503
513
516
510
503
507
514
515
508
504
509
517
515
507
504
511
518
513
505
507
515
518
511
503
505
515
515
509
504
509
518
515
506
505
513
517
511
503
506
515
515
508
504
512
517
511
506
511
518
514
506
508
516
518
508
504
516
526
521
513
516
525
523
513
512
520
526
520
517
523
524
522
514
511
518
523
515
504
506
515
516
508
504
511
517
513
506
507
516
517
509
506
515
530
542
549
564
585
604
602
581
558
535
507
479
459
456
467
478
480
486
500
510
511
504
502
508
514
509
500
503
511
515
513
510
514
521
518
510
507
514
519
516
508
508
517
522
516
508
515
526
527
520
513
518
527
524
516
516
526
534
530
521
522
531
530
520
511
514
522
521
514
512
516
517
509
503
504
510
507
498
497
504
512
505
496
501
511
509
501
500
507
512
505
499
504
511
509
500
501
507
513
499
504
514
511
501
500
507
511
506
499
502
512
515
507
502
504
513
511
503
502
509
514
508
499
504
513
512
505
502
508
516
510
503
504
513
514
508
502
507
516
514
506
506
513
517
509
505
511
518
516
507
507
514
518
512
505
508
516
516
510
507
511
517
512
505
511
520
519
510
508
517
520
512
507
512
520
517
508
508
516
519
512
507
512
520
516
507
508
516
518
512
507
511
522
524
516
514
519
525
520
513
515
523
523
516
514
523
528
522
513
511
518
523
513
501
505
516
516
505
503
512
519
515
506
509
517
515
506
508
521
531
536
548
569
591
600
594
578
557
524
487
461
465
473
475
484
498
510
508
503
506
515
514
504
501
508
513
512
510
514
521
524
517
510
513
521
521
514
511
517
523
518
510
518
529
527
517
516
524
528
520
515
524
535
532
522
520
530
532
525
516
518
524
520
512
514
520
517
509
505
510
513
507
498
499
507
511
505
497
500
509
509
501
497
502
509
508
500
499
506
511
506
499
502
511
512
506
500
504
513
512
504
500
506
514
511
504
503
509
514
509
501
503
511
516
510
503
507
515
513
505
501
508
515
514
507
503
509
515
509
502
504
510
514
508
503
507
516
515
504
504
511
517
512
505
507
516
517
509
507
515
519
513
504
507
518
518
509
504
511
517
513
504
508
516
516
509
505
512
518
515
506
510
519
517
511
508
514
521
516
510
509
517
520
514
506
510
519
519
508
506
513
521
520
515
518
526
525
517
517
521
527
520
513
518
531
527
519
511
519
526
521
509
507
515
515
508
505
510
518
513
505
508
517
518
510
506
513
524
527
530
547
571
587
593
592
584
567
532
494
469
464
466
465
467
478
495
507
504
500
507
514
511
503
499
506
514
512
505
508
516
521
516
506
509
516
519
514
510
514
520
519
511
507
515
527
526
517
515
522
527
522
514
515
526
532
528
522
526
534
532
523
518
520
524
519
511
511
520
521
512
503
506
514
513
503
496
500
509
508
500
496
504
512
507
500
501
509
509
504
499
504
512
510
502
501
508
512
506
499
505
513
511
503
501
508
514
509
501
503
511
513
505
499
506
514
511
501
501
511
513
507
501
507
513
510
501
505
514
514
505
502
508
515
511
503
504
512
515
510
503
505
514
518
511
504
508
517
517
509
505
511
519
519
508
507
512
518
514
504
506
513
518
513
506
508
517
518
512
507
509
517
518
510
505
510
518
516
508
506
512
519
514
504
507
518
520
512
507
510
519
519
509
507
514
518
519
515
518
526
526
518
513
519
526
522
514
515
527
528
519
511
515
524
520
512
509
514
518
512
506
510
518
516
507
504
510
518
516
507
507
514
521
521
521
536
560
577
585
590
595
588
561
521
487
471
468
465
460
469
487
500
501
497
503
512
514
507
501
506
514
513
505
505
515
523
519
511
510
517
523
519
511
512
518
522
516
509
511
520
526
522
517
521
528
526
517
514
520
527
528
524
524
529
532
527
520
521
524
522
514
510
515
523
521
508
500
508
516
510
497
495
505
511
506
498
500
508
510
502
496
503
510
507
497
498
508
512
504
498
503
512
508
499
500
507
512
504
498
506
513
509
502
503
512
513
506
500
504
513
512
504
502
507
513
511
503
503
510
516
512
504
504
512
516
510
503
505
513
515
509
504
508
516
516
508
505
511
516
511
503
504
512
518
510
504
505
513
516
509
503
506
515
517
510
505
510
516
516
508
505
511
517
514
507
506
512
518
513
506
507
514
517
511
503
506
514
515
508
504
509
519
517
509
506
512
518
514
506
506
513
518
514
511
515
524
526
519
511
516
525
524
516
512
517
528
528
517
512
518
525
520
512
511
515
517
513
507
509
517
518
512
507
510
518
517
508
505
511
519
520
516
524
546
567
577
583
594
601
590
558
520
494
480
470
458
457
471
489
498
497
497
506
515
512
504
500
510
516
513
504
504
516
523
519
511
512
520
522
516
510
514
523
522
516
512
517
524
525
519
518
524
530
524
516
518
526
528
525
522
526
534
532
524
520
525
528
522
513
515
522
527
519
507
507
515
518
510
499
501
509
509
503
500
505
511
507
499
499
507
513
507
499
503
511
513
505
501
506
513
511
502
501
508
513
509
500
502
511
513
507
502
506
514
513
505
498
505
513
510
500
502
511
514
508
501
506
514
514
506
502
507
515
513
505
503
510
517
513
504
504
513
516
510
503
508
516
515
507
505
511
518
515
506
505
514
519
513
505
507
515
517
512
505
510
517
516
509
505
511
517
514
506
507
514
518
513
506
508
515
515
509
504
509
518
516
508
505
512
520
516
508
509
518
522
515
506
511
518
518
511
511
518
528
525
516
514
520
526
522
513
513
521
527
524
515
515
523
524
517
512
515
518
515
507
505
512
518
512
503
505
512
516
511
503
506
515
515
512
513
529
553
566
571
584
600
602
580
543
512
492
476
461
453
464
483
492
491
493
502
513
511
502
501
508
515
510
502
503
514
521
516
510
513
521
520
511
508
512
519
516
508
508
514
520
518
514
517
524
526
519
512
516
526
527
520
519
526
534
531
522
522
528
530
521
511
512
521
525
517
507
510
519
517
508
501
505
511
506
498
500
508
510
505
498
500
511
511
503
499
505
513
510
502
502
508
513
508
500
502
511
512
506
500
505
513
513
504
500
507
515
511
503
502
511
515
508
501
505
513
515
509
502
507
516
514
504
502
509
516
513
504
506
511
517
511
504
506
514
516
510
505
510
517
514
506
505
513
517
512
503
506
515
518
510
504
508
517
516
508
504
510
516
512
505
506
514
518
513
505
508
516
517
510
505
511
519
516
508
506
513
519
515
507
508
515
519
512
506
509
517
517
510
505
511
520
518
509
509
521
530
525
515
515
523
525
520
513
517
525
527
524
517
519
525
523
515
515
522
522
512
505
508
517
519
511
506
511
519
518
509
505
511
519
515
510
514
529
549
560
569
585
604
604
581
548
521
503
480
460
452
464
482
489
489
496
506
514
510
502
504
512
515
509
503
508
518
520
515
512
516
522
519
511
512
519
522
516
510
513
521
520
516
514
522
530
526
517
516
523
527
522
518
523
533
533
525
518
523
531
527
515
510
517
525
520
511
507
512
517
513
503
502
509
509
504
500
505
511
508
502
501
506
511
507
500
501
510
513
506
499
503
512
513
505
501
506
515
511
502
499
507
512
508
499
502
510
514
506
497
502
511
512
505
499
504
513
510
502
501
508
514
511
502
504
512
513
506
501
506
515
515
506
503
509
514
509
501
505
513
516
510
502
505
514
512
507
503
508
516
514
507
505
512
518
515
506
507
515
518
512
505
509
517
517
509
504
510
517
515
507
505
513
520
516
507
507
516
519
513
505
509
519
519
511
508
512
519
517
508
508
515
520
513
506
509
523
527
521
513
518
525
521
513
514
522
525
520
517
517
521
520
515
511
516
521
514
504
503
511
517
513
505
507
514
518
511
505
508
516
515
508
505
517
536
549
555
568
589
605
600
575
547
522
496
470
455
457
472
481
483
487
500
511
512
505
503
509
515
510
503
506
514
520
516
510
513
521
519
509
507
515
523
518
510
511
519
522
513
511
519
528
526
517
513
520
527
524
515
518
528
534
530
520
522
530
531
520
511
514
523
522
515
511
511
516
511
504
504
508
511
504
498
502
510
511
505
499
505
513
510
502
500
507
513
509
500
502
510
513
501
502
511
514
507
499
503
512
514
505
500
505
513
511
502
500
507
513
509
500
503
512
514
509
503
506
515
514
507
502
507
515
514
506
503
510
516
512
504
505
513
517
512
504
508
516
516
510
506
511
519
515
505
503
510
516
512
504
505
513
516
511
505
508
518
516
510
505
510
518
516
506
503
510
517
511
504
507
516
517
510
502
508
516
516
508
505
511
518
513
504
503
511
517
512
504
506
514
517
511
506
508
523
527
519
512
518
526
523
514
512
519
523
518
512
517
523
523
516
509
514
522
520
508
502
507
516
516
508
505
511
518
514
505
506
515
519
512
505
513
527
539
547
558
577
599
604
588
565
543
515
484
459
454
463
473
478
481
494
507
509
503
503
507
514
510
502
502
511
515
512
508
513
521
520
513
509
514
521
519
512
510
516
521
518
510
514
524
528
523
516
518
525
526
519
513
521
534
531
522
519
525
531
528
516
513
520
524
519
513
513
517
514
506
502
506
511
508
499
499
507
512
507
499
501
510
512
506
499
503
512
510
502
501
508
514
509
500
499
507
512
508
501
505
512
512
505
500
506
514
514
505
503
508
515
511
502
502
510
514
508
502
505
514
516
508
502
506
514
514
506
503
508
515
511
503
503
511
517
512
505
508
515
516
510
505
510
518
515
505
502
511
517
513
504
505
513
517
511
504
508
516
517
510
506
511
519
516
508
505
513
520
517
507
507
515
518
513
506
509
517
517
510
506
511
520
519
510
506
512
519
516
508
508
514
518
514
507
509
519
523
518
512
517
525
523
515
514
520
526
523
514
519
527
525
517
511
516
526
524
511
502
507
516
514
506
505
512
518
513
505
506
515
517
511
505
512
526
533
539
553
574
595
601
592
575
556
528
495
466
457
463
472
476
480
492
507
507
503
501
506
512
509
501
502
510
515
512
509
513
521
520
513
509
512
524
522
513
509
515
522
519
510
512
525
532
524
515
518
528
531
523
515
521
533
533
524
521
527
534
530
519
515
520
523
519
513
515
520
516
508
505
511
514
509
499
499
506
512
509
500
503
511
515
509
501
504
512
512
505
500
505
512
511
503
501
507
513
510
502
503
510
514
509
501
504
512
513
506
501
506
514
513
505
503
509
516
512
503
503
510
514
509
502
506
514
515
507
502
507
515
514
506
504
511
517
513
505
506
511
514
510
505
509
516
516
509
505
510
518
515
507
505
512
518
513
505
505
514
519
512
505
508
515
516
509
503
508
516
515
506
504
511
517
513
504
505
514
518
512
505
508
518
519
513
506
510
517
516
510
507
512
519
515
507
507
514
521
520
514
517
525
524
516
512
516
523
521
513
513
524
527
519
510
512
520
522
514
504
506
515
516
508
503
508
516
512
505
505
513
518
512
504
505
517
524
529
537
557
580
593
595
589
576
557
523
487
465
463
467
468
470
481
498
506
501
498
505
515
515
507
502
507
515
512
508
511
518
522
517
509
511
519
520
513
508
513
520
519
511
508
518
528
526
517
517
526
528
522
514
517
529
534
526
520
524
532
531
522
515
519
524
520
513
514
522
521
512
504
507
514
511
501
496
500
509
509
502
499
505
511
507
499
499
506
510
504
496
497
507
508
502
497
504
511
510
502
500
507
513
510
502
504
512
513
507
501
505
513
512
504
501
507
515
511
502
502
509
514
509
501
503
511
515
509
503
506
514
512
505
503
509
517
514
505
504
512
517
511
503
504
512
515
510
505
508
516
516
509
505
509
518
514
506
505
513
519
515
506
508
516
518
511
506
510
519
518
510
507
513
520
515
507
506
515
517
513
506
511
519
518
509
505
511
519
516
509
508
515
519
513
507
508
517
521
519
516
520
526
524
517
515
521
527
525
515
515
525
530
522
512
513
523
524
515
506
508
516
515
508
504
511
518
515
507
507
513
518
514
506
508
518
524
524
530
549
573
587
592
593
588
573
541
502
475
466
467
465
466
480
498
508
502
501
507
514
513
504
502
510
517
512
505
510
520
525
519
510
513
520
521
514
510
514
521
518
510
509
516
527
526
517
515
523
528
523
514
516
525
531
527
522
526
532
531
523
519
520
524
522
514
513
520
523
513
502
504
513
511
501
495
502
510
508
500
498
505
511
508
498
502
509
510
504
499
504
511
509
503
499
504
512
510
501
500
508
514
509
502
504
512
514
507
501
506
512
514
505
502
508
515
512
504
503
510
515
510
503
505
512
514
508
501
506
514
514
507
503
509
516
512
504
504
511
516
511
503
505
514
514
509
504
509
517
517
510
506
512
519
515
507
505
512
517
513
506
508
518
519
511
505
510
518
517
508
505
513
520
516
507
507
514
519
512
506
509
516
517
511
506
510
518
517
509
507
513
519
515
507
508
515
519
517
514
517
525
525
518
514
517
527
525
517
512
520
530
525
513
513
520
525
519
511
509
514
515
508
503
508
516
515
507
504
511
517
514
507
509
517
520
519
524
543
566
580
586
593
598
585
553
514
486
472
467
462
460
472
490
502
501
498
505
516
514
506
503
509
515
512
504
506
518
524
518
509
509
517
520
514
508
512
519
518
510
507
513
524
526
519
517
522
526
521
514
516
524
528
524
519
524
532
531
523
519
522
524
518
511
513
520
522
512
503
506
516
516
503
495
499
507
506
499
497
503
509
505
497
497
506
510
504
497
500
508
509
504
500
504
512
510
502
501
507
513
509
502
503
510
513
507
500
503
512
513
505
500
505
513
511
504
503
508
514
510
501
503
512
516
508
500
504
514
515
508
503
507
515
512
503
503
512
516
511
504
506
513
515
509
504
508
517
515
508
505
511
518
514
507
508
515
519
514
506
508
518
520
511
504
510
520
518
509
505
512
519
515
507
507
514
519
515
509
512
518
518
512
507
512
520
518
511
507
515
522
518
508
508
515
521
517
513
518
527
528
520
514
519
527
525
516
515
523
532
527
516
515
523
526
519
513
512
516
515
508
505
511
518
515
506
506
513
519
514
506
508
517
522
521
521
536
560
574
579
588
601
598
572
532
500
482
473
462
457
468
485
496
498
495
503
514
513
504
499
505
514
514
504
503
514
522
519
511
511
518
521
515
509
512
521
520
513
508
513
522
523
518
517
523
526
520
513
516
524
526
524
520
524
532
529
522
519
524
527
521
511
511
519
525
518
505
505
514
516
507
497
499
508
508
500
497
503
510
506
498
499
507
512
506
499
502
510
512
503
499
504
512
510
501
499
507
514
511
502
500
507
513
509
502
504
511
513
506
501
505
514
511
502
501
508
515
511
503
504
512
515
509
500
505
514
513
506
503
508
516
514
505
502
508
516
513
506
507
515
518
513
506
508
515
517
511
505
509
517
515
508
506
512
518
513
505
504
514
517
511
505
510
517
518
510
505
511
519
518
509
508
514
519
515
507
509
516
520
513
507
511
519
520
512
508
513
519
516
508
508
515
519
514
510
516
525
525
519
512
517
525
525
517
513
519
527
527
517
513
520
524
519
512
514
518
517
509
504
510
518
515
507
503
508
515
513
505
505
513
519
515
511
522
547
562
570
577
593
606
591
556
523
499
483
467
454
458
475
490
493
493
499
511
513
506
500
506
514
511
503
502
512
521
518
510
512
518
520
512
507
510
519
519
512
508
513
521
519
516
517
523
527
522
514
516
524
526
522
520
526
535
534
524
520
525
531
523
514
513
520
526
521
509
505
512
515
510
500
501
508
508
501
498
503
511
507
498
498
508
512
506
499
502
509
510
503
499
508
511
505
499
502
510
511
505
500
505
513
512
504
500
507
514
512
504
504
512
516
509
502
506
514
512
506
501
506
513
512
504
502
508
514
511
503
504
512
515
509
503
507
515
517
509
504
509
516
515
507
505
510
516
512
506
506
514
518
512
504
508
516
516
509
505
510
519
516
506
504
512
518
513
506
508
517
518
511
505
510
518
516
509
505
512
518
516
508
508
516
520
513
507
508
516
518
511
505
510
519
517
510
510
520
527
523
513
514
522
525
520
513
515
522
524
521
515
516
522
520
513
511
518
520
513
504
506
514
518
513
506
509
516
517
510
506
511
519
517
511
513
528
548
559
567
581
601
607
585
551
523
502
480
460
453
464
480
487
487
494
505
514
511
503
504
511
513
507
501
504
515
520
515
510
515
522
519
511
511
518
522
516
510
512
519
521
515
514
522
530
527
519
515
522
530
526
518
522
531
535
529
522
524
532
533
522
513
517
526
524
517
510
511
515
514
505
502
507
509
504
498
502
510
510
502
499
504
512
510
501
500
506
511
506
499
501
509
511
505
499
504
512
511
504
501
506
513
510
502
501
508
514
509
500
502
511
514
508
503
506
515
513
505
500
508
515
512
504
503
510
515
509
501
504
512
514
507
502
507
515
514
506
503
509
516
511
504
503
512
514
509
502
505
515
516
508
504
509
516
514
504
502
512
519
515
506
507
514
518
511
505
508
518
518
509
504
509
517
515
508
508
515
521
515
506
507
516
518
512
507
512
520
518
510
506
512
520
517
508
507
519
528
520
513
516
525
524
515
511
517
524
522
517
519
523
525
519
511
516
524
518
507
503
510
516
512
505
506
513
516
510
504
509
517
517
510
507
516
534
547
556
569
589
606
603
578
552
527
502
475
458
458
471
482
484
487
499
510
512
507
503
509
515
512
504
505
512
518
516
512
515
522
522
515
511
516
523
521
512
510
518
523
518
513
519
528
529
523
515
519
527
525
515
518
529
534
528
520
523
531
533
524
512
515
522
522
515
511
512
516
512
504
503
505
509
504
498
500
507
510
504
499
503
511
510
503
499
506
512
508
500
501
509
513
508
500
504
512
513
505
499
504
513
512
504
502
508
515
512
503
503
511
513
508
501
505
513
514
506
502
506
514
512
503
504
513
515
509
503
505
513
513
507
502
507
515
512
504
503
510
516
512
503
504
511
515
510
504
507
515
515
506
504
508
516
513
506
505
513
519
514
507
507
514
518
513
506
508
515
516
509
505
511
519
516
508
505
512
518
512
505
509
516
518
512
505
509
518
519
512
506
511
518
515
507
507
516
524
519
512
515
524
525
519
514
519
526
522
515
518
524
525
519
511
512
522
525
514
503
507
517
518
510
505
510
518
514
506
505
512
518
513
505
509
522
534
543
552
571
593
603
595
577
556
531
499
469
458
461
471
476
479
489
504
509
505
503
506
513
511
503
501
508
515
513
509
512
519
521
515
510
514
522
520
511
508
515
521
517
509
513
524
527
522
515
519
527
529
521
515
522
533
532
522
521
527
534
531
520
516
522
525
520
513
514
518
514
508
504
508
511
506
497
497
504
510
499
499
506
513
508
498
500
508
512
505
499
503
512
512
504
500
505
513
512
504
502
509
514
509
502
504
512
513
507
502
508
515
513
505
502
507
515
512
505
505
512
516
510
503
507
515
516
508
502
507
516
515
507
505
512
518
514
505
505
513
516
511
504
507
515
516
508
504
508
517
514
506
504
511
518
514
505
507
515
520
514
506
509
517
518
511
506
511
519
516
506
505
512
519
513
504
506
515
517
511
505
510
519
516
508
505
511
519
515
507
506
513
518
513
506
508
516
523
519
514
519
526
523
515
513
518
525
521
513
515
526
527
519
510
513
523
523
513
504
508
517
516
508
505
512
517
512
504
506
515
518
511
505
513
526
531
536
550
573
591
599
596
587
571
543
504
472
462
465
468
471
478
492
507
507
503
506
513
516
511
503
506
513
514
511
509
516
524
521
511
509
514
522
518
510
510
517
520
515
507
512
526
529
521
515
518
526
525
517
514
521
532
530
521
521
528
531
526
517
516
527
514
514
527
518
504
508
513
507
500
495
505
510
502
496
501
510
507
499
500
509
511
503
499
506
512
508
499
500
508
512
506
499
501
510
513
507
499
503
512
510
504
500
507
514
513
505
502
509
515
512
503
504
511
515
511
504
504
512
515
510
503
506
514
514
504
503
511
517
512
504
507
515
516
509
503
510
516
512
505
504
513
515
512
504
508
517
517
508
505
512
519
514
505
507
516
517
512
505
509
516
518
509
505
512
517
513
506
508
516
519
513
506
509
517
517
510
507
510
518
516
508
507
514
519
513
506
510
519
520
516
515
521
531
521
513
514
522
524
513
512
519
531
524
512
513
521
505
512
515
509
503
508
517
515
505
505
513
518
511
503
507
518
523
526
537
560
579
588
591
593
586
564
528
491
472
467
463
463
468
481
498
505
501
499
507
515
514
504
501
508
515
511
504
509
519
524
517
510
512
520
520
512
507
513
522
519
510
508
515
527
527
517
517
524
527
520
513
516
526
531
526
521
525
532
529
520
518
521
524
519
511
514
523
522
511
503
507
517
513
501
495
503
511
508
500
499
506
511
506
498
500
509
511
505
499
504
512
510
502
499
507
515
511
503
502
509
514
507
499
502
512
513
505
500
505
515
513
506
503
508
514
511
503
503
511
515
510
503
505
514
515
508
504
510
517
513
505
504
511
517
512
505
508
515
518
512
506
508
516
516
509
504
510
517
514
507
506
512
518
512
504
505
513
516
510
503
507
515
514
509
506
511
518
514
505
505
513
518
512
504
507
515
518
513
506
510
517
517
510
507
513
520
517
508
507
515
520
515
507
508
516
518
514
511
515
524
524
516
515
519
526
522
514
515
523
531
523
513
514
523
523
517
511
512
517
515
507
506
512
518
512
505
506
514
519
512
505
508
514
519
517
521
541
566
579
584
592
599
590
559
518
491
478
470
461
458
472
491
500
499
497
507
516
512
503
501
508
515
510
502
506
519
522
515
509
512
521
520
512
509
515
522
519
511
510
519
525
522
517
520
527
529
522
515
519
527
527
524
524
529
534
529
521
521
526
527
519
512
516
524
525
514
505
510
517
516
503
497
503
510
507
499
500
509
511
505
498
504
511
510
502
499
504
512
509
500
499
506
511
506
499
501
510
513
507
501
504
511
511
505
501
507
513
511
502
502
511
514
509
500
504
513
513
507
501
505
512
512
505
503
509
515
512
502
502
510
515
510
502
504
514
515
508
504
508
516
514
505
503
510
516
512
505
506
513
517
508
503
506
515
517
509
503
508
516
515
506
504
512
519
514
506
507
514
518
513
507
510
517
517
511
505
509
517
517
509
506
511
517
514
506
508
517
519
513
506
509
517
517
510
511
520
526
520
511
511
519
522
519
512
514
522
527
521
512
515
521
521
514
510
514
518
513
505
507
515
520
514
507
509
517
518
510
504
509
518
517
513
517
536
559
571
576
590
604
600
572
536
507
488
472
458
455
468
487
494
494
497
506
514
510
502
503
511
513
506
501
507
519
521
514
510
514
521
518
509
509
516
521
515
508
510
519
521
518
515
520
527
526
518
515
522
528
524
520
522
530
534
527
519
522
530
528
517
511
517
525
524
514
506
510
516
513
503
499
506
511
504
499
501
510
510
502
497
502
509
508
500
498
504
511
507
499
501
510
512
505
499
504
513
512
505
502
507
513
509
502
502
510
514
508
501
505
512
513
505
499
504
512
512
504
502
508
515
512
503
502
510
515
511
504
506
514
516
510
504
508
516
515
507
505
511
516
512
503
504
511
515
512
506
508
516
518
511
505
506
516
514
507
505
511
518
514
505
506
515
517
511
506
510
518
517
509
505
510
518
515
507
507
514
519
514
506
508
515
517
510
504
509
518
517
509
505
511
518
515
507
509
522
528
521
512
515
524
524
518
513
517
525
525
521
517
520
524
519
512
514
520
519
511
505
509
517
516
509
504
510
518
515
506
505
512
516
508
513
532
550
560
568
585
605
603
577
547
520
499
474
456
453
467
483
488
488
496
507
513
508
502
505
512
510
503
501
508
518
519
511
511
517
522
516
508
509
518
522
517
510
513
520
518
512
514
524
528
524
516
515
523
527
521
516
522
532
533
524
520
526
533
527
515
510
517
523
519
509
512
516
512
504
504
509
511
504
499
503
511
508
500
498
504
511
507
498
499
507
511
505
498
500
509
512
505
499
504
512
511
503
501
508
513
509
502
503
511
515
507
500
503
512
514
507
503
508
516
513
505
503
509
514
511
504
505
512
516
510
503
506
515
515
508
504
510
516
514
505
509
516
512
504
506
514
516
510
504
507
516
517
511
507
512
520
517
507
505
513
516
512
505
505
515
517
510
505
510
518
517
509
505
508
516
514
507
507
514
519
514
505
508
516
518
511
507
512
520
517
509
507
513
519
515
508
509
519
526
521
514
516
523
524
517
511
517
525
521
516
517
526
521
513
513
518
523
513
504
505
515
518
511
503
508
517
516
508
505
511
518
514
507
510
523
539
548
557
574
595
606
596
572
548
522
493
467
455
460
474
482
483
491
505
512
508
502
505
513
514
508
503
509
515
517
512
510
516
524
519
509
508
517
521
516
509
511
519
519
512
511
520
528
525
516
515
522
528
525
516
520
531
534
527
520
524
531
531
520
511
516
524
522
515
513
515
517
513
505
505
510
510
503
498
503
511
510
503
500
505
512
509
500
500
508
513
508
500
502
509
511
504
498
504
512
512
503
499
505
512
509
502
502
509
513
508
501
503
511
513
506
500
505
513
512
504
500
508
516
512
503
503
511
516
511
504
507
515
517
509
505
510
517
515
506
503
511
518
514
505
505
512
516
511
505
508
517
517
510
505
510
518
516
508
505
512
520
515
506
507
514
519
514
505
508
516
517
510
505
511
519
516
508
505
509
516
515
506
507
515
519
513
505
507
516
518
511
505
511
519
516
507
506
515
525
523
514
516
522
525
518
513
517
524
523
515
514
522
527
521
513
513
520
526
516
505
506
515
519
513
506
509
516
518
509
504
510
518
515
506
505
516
529
537
544
560
582
600
601
586
566
545
515
481
459
456
466
473
476
483
497
508
507
502
504
511
514
509
501
504
513
514
511
509
515
522
519
510
510
517
522
517
509
511
519
521
514
508
517
528
528
520
515
521
528
525
516
515
526
535
530
521
522
530
532
525
514
514
523
523
515
511
516
519
513
504
503
508
509
502
495
499
509
511
504
497
501
511
511
503
498
501
511
508
501
500
508
513
508
500
499
509
512
506
500
505
513
511
502
499
507
515
512
503
502
510
515
510
502
504
513
514
507
502
507
515
514
506
503
509
515
512
504
503
510
516
511
503
506
514
516
510
504
508
515
514
507
502
509
517
514
506
504
512
518
512
504
506
514
517
511
504
508
517
517
510
506
511
520
518
510
508
515
521
516
507
509
519
520
512
507
513
521
518
509
507
514
521
516
507
508
516
520
514
506
509
517
519
512
507
511
520
523
517
516
523
528
523
514
515
522
525
519
513
521
530
526
515
511
517
526
523
511
504
511
518
514
505
508
517
520
514
506
510
519
520
511
503
510
525
532
537
550
571
592
600
596
585
568
541
502
472
463
465
468
470
477
491
504
507
503
503
510
514
510
502
504
511
514
509
506
512
521
522
513
509
513
522
519
511
509
517
521
515
508
511
524
528
521
514
518
526
526
518
513
519
533
532
524
521
527
532
529
520
516
521
523
517
512
516
521
516
507
503
511
516
509
499
498
506
512
506
497
499
508
510
502
497
503
511
509
501
499
506
513
509
500
501
509
513
507
499
503
511
513
506
501
504
513
512
505
502
508
516
512
501
503
510
515
509
501
503
512
515
508
503
508
516
514
507
503
509
515
512
503
503
510
515
509
501
504
513
515
508
502
506
514
514
507
503
510
517
512
504
505
513
516
510
503
507
516
515
507
503
507
515
513
504
505
512
518
513
505
506
515
518
511
505
509
518
519
512
508
512
520
518
510
507
514
520
516
508
509
516
519
513
505
509
517
520
517
514
520
527
523
515
514
520
526
521
513
516
527
528
519
510
514
524
525
516
506
508
516
515
506
505
512
516
510
503
506
515
518
512
505
509
520
525
527
540
562
583
592
595
594
584
563
526
489
469
466
465
465
470
483
498
504
499
500
508
515
511
502
501
509
516
511
506
512
521
523
517
511
514
521
523
515
511
516
524
521
513
511
519
528
524
515
516
524
527
521
513
516
527
532
527
521
524
532
529
520
517
520
523
518
510
511
519
519
509
501
506
516
511
500
496
502
509
507
499
499
507
511
506
497
501
510
511
504
498
502
511
512
504
500
505
512
509
502
503
510
514
508
500
502
511
512
506
499
503
512
512
505
502
508
515
511
503
503
511
515
510
503
505
513
514
507
501
506
515
514
506
504
511
515
510
502
504
513
516
510
503
504
513
514
507
501
506
514
513
505
503
510
517
512
503
504
512
516
509
502
506
515
516
508
504
509
517
515
508
506
512
518
516
508
505
514
518
513
505
508
517
518
511
506
512
519
516
507
505
512
519
515
506
508
516
519
516
513
516
526
526
518
513
518
526
522
514
514
524
532
525
513
513
521
524
518
509
508
514
514
508
504
510
518
516
508
506
512
517
512
504
507
515
520
520
524
543
566
581
588
593
596
583
552
512
483
470
468
461
462
473
491
502
501
497
504
513
513
505
500
506
514
512
504
508
519
526
519
510
511
519
523
516
509
513
521
519
510
508
515
525
525
518
518
523
526
521
513
515
523
528
526
521
525
533
532
523
519
522
524
520
512
512
520
524
515
503
504
513
515
504
496
500
510
511
504
500
505
512
508
499
498
507
512
507
499
501
510
512
506
500
505
512
512
504
500
506
515
512
503
501
511
515
510
501
504
512
515
509
503
507
514
513
506
504
510
515
511
502
503
510
514
510
502
504
513
515
509
503
508
517
515
507
504
510
518
516
507
507
515
519
514
507
510
517
518
513
506
511
519
518
510
506
512
519
516
508
508
515
519
514
507
509
518
520
513
506
509
518
517
509
507
513
520
516
506
506
513
518
513
507
511
518
519
512
507
513
520
518
510
508
515
522
517
513
516
524
527
520
514
517
526
525
517
512
516
527
528
517
513
519
524
520
513
512
515
514
509
504
508
518
518
510
506
511
519
517
509
508
515
519
518
517
530
552
571
580
586
598
600
578
541
503
481
472
464
456
463
480
494
498
496
500
510
513
506
499
503
511
512
503
500
511
520
519
510
509
515
520
515
508
510
518
520
515
508
512
520
523
518
514
520
527
524
515
513
521
527
526
521
523
530
531
525
518
522
525
521
514
510
517
525
521
509
504
510
517
513
500
499
504
510
504
498
501
509
510
503
497
503
511
508
501
501
508
512
507
500
501
509
511
504
498
504
512
511
502
499
506
514
511
502
501
508
513
509
502
502
510
512
506
501
506
513
512
504
500
506
515
512
504
503
510
514
509
502
504
513
517
510
504
508
515
514
505
502
509
516
514
505
504
510
516
512
504
505
513
516
509
502
506
513
513
505
502
509
518
513
505
505
513
517
512
503
505
513
515
510
504
508
516
515
507
504
510
517
513
505
506
513
518
513
505
508
515
516
510
505
510
519
515
510
510
518
524
522
513
512
520
526
521
512
514
524
530
525
515
516
524
524
517
513
515
518
514
505
505
513
519
514
506
507
514
508
508
517
518
515
515
530
553
568
574
584
599
603
581
544
510
490
476
462
454
463
482
494
496
496
501
514
514
505
502
507
516
513
504
502
513
523
519
511
512
519
521
515
509
513
521
520
512
508
513
520
522
517
518
524
528
524
516
517
525
527
523
520
524
531
532
526
520
525
531
524
511
516
526
521
507
505
514
518
511
499
501
510
510
503
497
504
513
510
501
501
508
512
507
499
502
510
511
505
501
505
512
511
503
500
506
512
509
502
503
511
515
510
502
504
512
513
505
500
505
513
513
504
500
506
512
510
502
502
511
516
510
503
506
515
515
509
503
507
515
512
505
507
514
513
504
504
512
519
513
505
507
515
518
512
504
508
517
516
509
504
510
518
515
507
506
513
520
515
507
507
514
517
511
505
510
519
519
511
506
511
519
515
506
504
512
519
515
507
507
515
521
516
507
509
517
518
511
507
512
519
517
509
508
520
527
522
513
513
520
525
520
513
515
523
525
521
514
516
523
521
513
512
517
517
510
503
505
514
517
510
503
507
514
515
508
504
510
519
515
509
513
530
551
563
570
585
602
604
580
547
517
497
478
461
453
465
483
490
489
494
503
514
512
504
503
509
513
510
502
504
515
521
516
511
514
522
520
513
510
515
522
519
510
506
517
522
518
515
520
528
527
518
514
520
527
525
518
520
528
534
528
520
521
529
529
518
510
514
524
525
517
508
508
514
513
506
499
503
509
505
498
498
505
510
504
497
502
509
510
503
498
504
511
509
502
499
505
511
507
500
501
509
514
509
501
503
511
512
505
501
505
513
511
503
500
506
512
509
501
503
511
514
507
501
505
514
515
506
501
507
515
514
505
503
510
516
512
504
504
511
515
511
503
506
515
516
508
504
508
515
515
506
504
511
517
513
505
506
515
520
515
506
508
515
518
512
505
510
519
518
509
506
514
520
516
508
507
514
519
513
505
507
516
518
512
508
512
519
518
510
506
513
519
515
508
510
515
519
513
507
514
525
526
519
515
520
526
523
515
515
523
527
524
519
517
523
526
520
513
516
523
518
509
505
510
518
516
507
505
512
520
515
507
507
514
517
510
507
515
534
549
557
566
585
604
601
577
549
