0
335
339
337
335
334
336
338
337
336
335
337
338
337
335
336
336
337
337
336
337
336
337
338
337
337
339
339
339
337
336
337
339
339
337
337
338
338
338
336
337
339
340
340
339
338
339
340
339
339
339
340
341
340
339
338
338
339
339
338
337
339
339
339
338
338
338
339
339
338
337
339
340
339
338
338
339
341
340
339
338
339
340
341
339
339
341
342
341
339
339
339
341
341
340
338
340
341
341
340
340
340
340
340
339
339
340
342
341
339
339
340
341
344
345
345
345
346
346
344
343
344
346
345
344
345
348
348
346
343
343
344
345
344
340
338
338
339
339
337
337
339
341
340
339
338
339
342
341
338
338
341
345
352
358
367
377
387
396
398
393
381
363
342
324
311
307
306
309
314
320
326
334
335
335
337
338
339
338
337
336
336
338
337
339
341
343
342
340
340
342
343
343
342
341
340
341
342
342
342
340
344
347
347
345
343
344
346
345
345
344
346
349
351
350
350
350
350
349
348
345
344
344
344
343
344
346
345
340
338
338
340
339
335
332
333
335
336
335
334
334
335
336
336
334
334
335
336
335
334
333
335
336
336
334
333
335
337
336
335
335
336
337
338
335
335
336
337
337
336
335
337
339
338
336
336
337
338
337
337
337
337
338
337
336
336
338
339
339
337
336
337
338
338
338
338
339
340
339
338
338
340
340
340
338
338
339
340
339
338
338
339
339
338
337
338
339
339
338
337
337
338
340
340
339
339
340
340
339
339
340
340
342
341
339
338
340
340
340
338
339
340
341
341
339
338
339
340
341
340
340
341
342
341
339
339
341
343
342
339
339
340
342
344
345
345
345
346
345
344
345
345
345
345
344
344
348
348
345
342
342
343
345
344
340
337
338
340
340
339
339
339
340
341
341
339
340
341
340
339
338
340
343
348
355
365
376
385
393
398
396
386
370
349
328
315
308
307
309
314
320
326
332
334
335
337
338
338
337
335
336
338
340
339
339
341
344
344
343
341
342
343
345
344
343
341
341
343
342
342
341
344
348
348
346
345
346
347
346
345
345
347
350
351
350
350
350
350
350
348
346
345
346
345
344
344
345
344
341
338
337
340
340
337
334
333
335
337
337
335
335
336
337
337
336
336
336
338
336
335
335
336
338
337
335
336
337
338
337
336
336
337
337
337
336
336
337
339
338
337
336
337
338
338
337
336
337
339
339
337
337
339
340
339
336
337
339
340
338
337
337
338
339
339
340
337
339
340
339
338
337
338
339
339
337
338
339
340
339
339
339
340
341
341
339
340
340
341
340
340
339
341
342
341
340
339
341
343
341
340
340
341
342
342
339
340
341
342
341
339
339
341
342
341
341
339
340
341
340
338
338
339
340
340
339
338
339
340
339
339
339
340
341
344
345
345
345
346
346
345
344
345
346
345
343
344
348
350
347
343
342
344
346
344
342
339
339
340
340
339
339
339
340
340
339
339
340
341
341
339
339
340
344
347
352
362
373
385
392
397
398
391
376
355
334
318
310
307
307
312
318
325
332
335
335
337
338
338
338
336
335
336
338
337
337
340
343
344
342
340
341
342
343
342
341
341
342
344
344
342
342
344
347
347
346
345
346
347
347
346
346
347
349
350
350
350
350
351
350
349
347
346
345
344
344
344
344
343
340
336
336
338
339
336
333
333
334
336
335
334
335
335
336
335
333
333
334
336
336
335
335
335
336
336
334
335
336
337
336
334
334
335
336
335
334
335
336
337
337
335
335
336
337
337
336
336
337
338
338
337
336
337
338
337
336
336
337
337
337
337
338
339
338
337
336
337
337
338
338
337
337
338
339
338
337
336
338
339
337
337
336
338
338
337
337
338
339
339
338
337
338
340
340
339
338
338
340
342
340
338
337
338
340
340
338
338
339
339
339
338
338
340
342
341
340
340
340
340
339
337
337
339
341
341
338
338
340
341
339
338
338
340
340
341
343
344
345
346
344
343
343
344
346
346
344
343
345
348
346
342
341
344
345
343
341
339
338
338
338
337
338
339
340
340
340
339
340
341
341
340
340
340
341
344
348
358
369
379
388
395
399
395
381
361
339
322
312
309
306
309
315
322
330
334
333
335
338
339
339
337
338
339
340
339
338
341
345
345
345
343
343
344
345
344
344
343
344
344
345
343
342
343
347
348
347
346
346
347
346
345
345
346
347
349
349
349
350
350
350
350
350
347
344
343
343
343
344
344
341
337
337
339
340
337
333
333
335
336
336
335
335
336
337
337
336
334
336
336
336
335
336
336
337
335
334
335
337
338
337
336
336
337
338
337
336
336
337
338
337
336
336
337
338
337
336
337
338
338
338
336
336
337
338
338
337
337
338
339
339
338
337
338
339
339
337
336
337
339
338
336
336
338
339
340
338
338
339
340
338
337
338
340
340
340
338
338
339
340
339
338
337
338
339
339
337
338
339
341
339
338
338
339
340
340
339
338
340
341
342
338
338
338
339
340
340
340
340
341
341
338
338
341
342
341
339
338
339
340
340
340
340
340
340
342
343
345
345
345
345
345
344
345
345
345
343
343
345
349
348
344
342
343
346
345
343
340
340
340
341
340
339
340
341
340
340
339
340
340
340
340
340
340
340
342
346
355
366
377
385
393
398
397
385
366
344
326
314
310
307
309
314
321
327
332
333
335
338
339
338
336
336
337
338
337
337
339
344
345
343
341
341
341
342
342
342
342
343
343
342
341
340
342
345
347
345
345
345
346
345
344
344
346
347
349
349
349
350
351
350
349
348
348
346
345
343
344
345
346
342
338
337
339
340
338
334
333
335
336
336
335
334
335
335
335
334
333
335
336
336
334
335
336
337
336
335
335
336
337
336
335
336
337
337
337
336
336
337
338
337
336
336
337
337
337
336
337
338
339
338
337
337
337
338
337
336
338
340
340
339
338
337
338
339
339
338
338
338
339
339
338
338
339
340
340
338
339
340
340
339
338
338
340
341
340
339
339
341
341
341
340
340
341
342
341
339
339
341
342
341
339
339
340
340
340
338
338
340
341
341
340
340
341
341
341
340
340
341
342
341
340
339
340
343
341
341
341
342
342
341
339
339
341
342
341
342
345
347
347
346
345
342
344
347
345
344
344
346
350
349
346
344
345
346
345
344
342
341
340
338
338
339
339
340
339
338
339
340
340
340
338
338
341
342
342
343
352
362
373
382
389
396
397
388
371
349
330
316
309
305
306
312
319
326
330
331
333
336
338
337
336
336
337
338
337
336
337
341
344
342
339
340
341
343
342
341
341
342
343
343
341
341
342
345
346
346
345
346
347
347
346
345
346
346
348
349
349
349
349
348
347
347
347
345
342
341
342
345
346
342
338
337
340
342
339
334
333
334
336
335
334
334
335
336
335
333
333
335
336
336
335
335
336
337
335
335
335
336
337
336
335
336
337
337
339
335
335
337
338
338
336
336
337
337
338
336
336
337
339
338
337
337
339
339
338
337
338
340
340
339
337
337
338
339
338
338
337
338
339
339
337
337
339
341
339
337
336
338
338
338
337
339
340
340
339
338
339
341
341
340
339
340
342
342
340
338
337
340
342
340
338
339
340
341
340
340
340
341
342
341
339
340
340
341
341
340
339
340
341
341
339
339
340
341
339
338
339
340
341
341
338
339
340
341
340
341
343
345
346
344
343
342
345
345
345
343
344
346
348
349
346
344
345
345
345
343
343
341
339
338
337
338
339
341
340
339
338
339
340
340
338
338
339
341
342
344
350
361
372
381
388
396
400
393
377
355
335
321
312
306
305
310
318
325
331
332
333
337
339
339
338
337
338
339
338
337
338
341
343
343
342
342
344
344
343
342
342
344
345
344
340
340
341
343
345
346
347
347
347
346
345
345
346
347
347
348
349
351
351
349
347
348
349
347
345
342
342
344
346
345
341
338
338
339
338
335
333
335
336
335
333
334
335
337
336
335
335
336
337
336
335
335
336
337
334
333
334
336
337
335
335
335
336
337
337
336
335
337
338
337
336
336
338
338
338
336
336
337
340
338
336
336
337
337
337
336
336
338
339
338
337
337
338
339
337
336
337
338
339
338
337
338
339
340
340
339
338
339
339
340
337
337
339
340
339
338
339
340
341
339
338
338
339
340
340
338
339
339
341
339
338
339
340
341
340
339
339
341
341
339
338
340
341
341
339
338
338
339
340
340
339
339
340
341
339
339
340
342
341
340
339
339
340
340
339
340
343
345
346
344
343
343
344
344
343
342
342
344
348
348
345
343
344
344
343
342
342
341
340
338
337
338
340
341
340
339
339
340
340
339
337
338
338
341
340
342
347
358
369
378
385
394
400
398
382
362
341
324
313
306
304
308
316
322
327
329
332
336
339
338
336
337
338
339
338
337
336
340
343
343
342
341
342
343
342
340
340
342
342
341
340
340
342
343
345
345
346
347
347
345
344
344
346
346
347
348
350
352
352
350
349
349
350
348
345
342
343
345
346
345
341
338
339
340
339
336
333
334
334
334
334
334
335
336
336
335
335
336
336
336
335
335
337
339
337
335
335
338
338
337
335
335
337
338
338
336
335
336
338
337
336
338
338
338
339
337
338
339
340
338
337
337
339
339
338
337
338
339
340
340
338
339
340
340
339
338
339
341
341
340
338
339
341
342
340
338
339
341
340
338
337
339
340
341
339
339
339
340
341
340
339
339
341
341
339
339
339
340
342
341
340
340
341
341
340
339
341
342
342
340
339
339
341
342
341
339
339
341
341
340
338
339
341
342
341
340
340
341
342
341
340
340
341
342
340
340
343
346
348
346
344
344
345
345
345
343
344
345
347
349
348
345
345
345
344
343
343
343
341
339
338
339
340
341
339
338
339
340
341
339
338
338
340
341
340
342
345
355
365
373
381
392
399
398
385
366
347
330
317
308
303
306
314
323
326
329
332
335
339
338
337
336
339
339
337
336
337
340
343
343
342
342
344
344
342
341
341
342
342
341
339
340
342
343
343
346
346
347
346
345
345
345
346
346
345
347
350
351
351
349
348
348
350
349
346
343
344
346
347
344
341
339
339
339
339
337
335
335
336
335
334
334
336
335
335
336
336
336
337
335
335
335
337
337
336
335
335
336
337
336
335
336
338
339
337
335
335
337
339
339
337
335
336
337
337
335
335
336
338
337
336
337
338
338
337
336
337
338
338
337
336
336
338
338
338
337
337
339
339
337
336
337
338
339
338
337
337
339
339
339
338
339
340
340
339
338
340
341
342
340
338
338
340
340
339
338
339
340
340
339
337
337
339
340
339
338
339
340
341
340
338
339
339
340
339
338
339
341
341
341
339
340
342
343
340
338
338
340
341
340
339
339
340
341
340
339
343
347
347
346
345
345
345
345
345
343
343
344
346
346
346
345
344
344
343
341
342
342
340
338
337
337
339
340
340
338
338
340
342
341
339
339
340
341
340
341
346
354
363
372
381
390
399
402
391
375
355
336
320
309
304
305
312
320
325
329
333
335
338
338
336
337
338
339
337
336
337
339
342
343
342
342
344
345
343
342
341
343
343
344
341
341
342
343
343
344
346
348
347
346
346
345
347
347
346
346
350
352
352
349
347
348
350
351
347
344
343
345
346
344
343
340
339
340
339
337
336
335
336
335
334
334
336
336
335
335
335
336
337
336
335
335
337
337
336
335
335
337
338
336
335
336
337
337
336
335
336
337
339
337
335
336
338
339
338
336
336
338
340
339
337
338
340
340
338
336
337
338
338
337
336
336
338
339
339
338
337
339
339
338
336
336
338
339
338
336
336
339
339
338
337
338
339
340
339
337
337
339
342
341
338
337
339
340
340
338
338
339
340
339
338
339
340
341
340
339
340
342
341
340
339
339
341
341
340
338
338
340
341
339
338
338
341
342
340
339
338
340
341
340
339
339
340
342
340
339
340
344
346
345
342
343
345
345
344
343
343
345
346
346
347
345
344
344
344
342
344
344
341
338
338
338
339
340
339
338
338
339
340
338
337
338
340
341
339
339
342
350
359
367
375
385
395
400
396
380
361
341
324
312
305
303
309
318
323
326
331
335
339
338
337
337
338
338
337
336
337
338
341
343
343
342
342
342
341
341
340
341
341
341
341
342
343
343
342
343
345
348
347
346
344
345
347
346
345
345
348
351
351
349
347
347
348
348
345
342
343
345
345
344
343
340
339
339
338
337
335
333
333
333
333
334
335
336
334
334
334
336
337
335
333
334
336
336
334
333
334
335
336
336
335
336
337
337
336
338
336
337
338
337
336
336
338
337
336
335
336
338
339
337
336
336
338
339
338
336
336
337
339
338
336
336
338
339
338
338
337
339
340
339
338
337
339
339
339
338
338
340
340
339
338
338
340
340
339
338
339
341
341
341
340
340
341
341
341
339
339
341
342
340
339
339
341
341
340
339
339
340
341
340
339
339
339
340
339
338
339
339
339
339
337
339
340
341
340
339
339
341
340
339
337
339
340
341
340
339
339
344
346
346
344
344
345
346
345
344
343
345
346
345
347
348
348
346
343
342
344
345
344
340
337
338
339
341
340
339
339
340
341
342
341
340
341
341
340
340
343
350
358
367
375
385
395
402
399
387
368
348
331
315
306
304
309
315
320
325
330
335
338
338
337
336
338
339
338
338
338
338
341
342
342
342
343
342
341
340
341
343
344
342
341
341
343
343
342
343
344
347
347
346
345
346
347
347
347
346
348
351
353
351
349
350
351
350
347
343
342
343
344
344
343
342
340
338
337
337
337
336
336
334
334
334
336
336
335
334
335
336
336
334
334
335
337
337
336
334
335
337
337
335
334
335
337
338
337
336
335
336
336
336
336
335
336
336
335
334
337
338
338
336
335
335
337
338
337
336
336
338
339
338
338
337
338
338
338
337
337
338
339
339
337
338
339
341
339
338
339
340
340
339
338
339
340
340
340
339
338
339
340
339
337
338
340
341
340
339
340
341
341
339
338
338
340
341
341
340
339
340
341
340
339
339
340
341
340
338
339
341
341
339
338
338
340
340
339
339
339
341
341
340
339
340
342
342
341
341
340
344
347
347
344
344
345
346
346
345
345
346
346
344
346
348
348
348
345
342
343
345
345
340
337
337
339
341
340
339
339
340
340
339
338
340
342
341
339
338
342
347
354
363
371
382
391
399
399
390
373
354
335
319
308
304
306
313
318
322
328
333
336
337
336
336
337
337
337
336
338
338
339
340
341
340
341
343
342
341
341
342
342
341
340
341
342
341
341
341
345
348
348
346
344
345
346
346
345
344
346
350
351
350
348
348
350
351
349
344
342
343
344
344
343
342
340
338
337
338
337
336
334
333
333
333
336
336
335
333
335
336
336
335
335
335
337
337
336
336
334
336
337
336
335
335
337
338
337
336
336
337
338
338
337
337
338
339
338
336
335
337
339
337
336
337
339
339
338
337
338
339
339
337
337
336
338
339
338
338
337
339
340
339
337
337
339
340
339
338
339
340
340
339
338
338
340
341
340
339
339
340
340
339
337
338
339
340
339
338
339
340
341
340
339
340
340
341
340
338
339
339
340
340
339
338
339
340
340
339
340
341
342
341
340
340
343
343
341
340
340
342
342
340
339
340
341
342
340
340
341
344
347
346
345
345
347
347
346
344
343
345
345
345
346
348
347
345
344
344
345
345
344
341
338
338
340
341
339
338
339
341
341
340
339
340
342
342
339
337
340
345
352
359
368
379
389
397
399
392
378
360
341
323
310
307
306
310
316
321
327
332
335
336
337
337
338
338
337
336
337
339
340
341
342
341
342
342
341
339
340
342
342
341
340
341
341
341
341
340
343
347
347
346
346
345
346
346
344
344
345
349
350
349
347
348
348
349
348
343
341
342
343
343
342
342
341
339
337
336
337
337
335
333
332
333
335
335
335
334
335
336
337
335
334
335
336
337
335
334
335
336
337
336
334
335
336
337
336
335
335
336
337
337
336
336
337
337
336
335
336
338
339
337
337
337
339
339
338
337
338
339
339
339
339
338
340
340
339
337
338
339
340
339
338
337
338
340
338
337
337
339
340
340
339
339
339
339
338
338
338
338
338
338
337
338
340
340
339
337
338
340
340
339
339
339
340
340
339
339
340
341
341
340
340
340
341
341
341
338
339
340
341
339
339
339
340
340
339
339
338
340
341
341
339
339
340
341
340
339
340
341
345
346
344
344
345
345
344
343
344
344
343
342
343
347
348
346
343
342
343
344
345
342
339
338
340
340
339
338
338
340
340
339
338
338
340
341
339
338
339
343
349
356
365
376
387
395
399
396
383
366
346
328
313
305
304
309
314
319
325
331
334
336
336
336
338
338
337
336
337
339
340
341
343
344
345
344
343
341
342
345
345
343
341
341
342
343
341
339
342
347
348
346
344
344
345
346
344
345
346
349
351
350
348
348
348
349
348
345
342
343
344
344
344
343
342
340
338
338
338
337
335
333
332
333
335
335
336
334
334
335
336
335
334
336
337
337
335
334
335
337
337
336
335
337
337
337
336
336
337
337
337
338
337
336
337
338
337
336
336
337
338
337
336
337
339
339
338
336
337
339
339
336
335
336
338
339
339
338
338
339
340
339
338
338
339
340
339
340
340
341
341
339
338
339
340
340
339
339
339
341
341
340
339
339
340
342
339
338
337
339
340
339
338
339
340
340
339
339
339
341
341
339
338
340
340
340
339
338
339
340
341
340
339
340
342
341
339
338
339
340
341
340
339
339
341
341
341
340
340
341
345
346
346
346
345
346
345
343
344
346
346
345
344
347
349
347
344
343
343
345
346
343
339
337
339
340
340
339
339
340
341
339
338
338
340
341
340
338
338
343
348
354
363
373
384
394
399
397
388
372
352
334
316
307
305
308
312
317
324
330
335
335
336
338
339
338
337
336
338
339
339
339
341
343
345
344
343
341
341
342
343
342
341
341
343
343
341
340
342
346
347
346
344
345
346
347
347
346
347
351
352
352
349
349
349
350
348
346
344
344
345
344
343
344
344
341
338
337
338
339
336
334
333
334
336
336
336
334
335
336
337
335
335
335
337
338
336
334
337
338
336
335
335
336
337
338
337
337
336
337
337
336
335
336
337
337
335
335
336
337
338
337
336
336
337
337
337
336
336
338
338
337
337
337
339
340
339
338
338
339
341
338
337
338
340
340
338
337
336
339
339
338
337
337
339
339
338
336
337
339
340
339
337
339
341
341
339
338
338
339
340
339
339
340
342
342
339
338
339
340
341
341
341
341
343
343
341
339
340
341
341
341
339
339
341
342
340
338
339
341
342
340
338
339
339
340
339
339
339
341
344
346
345
345
345
345
344
343
343
346
345
345
343
346
349
347
344
342
342
344
344
343
339
338
339
340
340
339
339
340
341
339
338
338
339
340
339
338
338
341
345
351
359
370
381
390
396
397
390
377
358
337
320
310
306
308
310
316
323
329
333
334
335
337
339
339
337
337
337
338
338
338
340
342
343
343
342
341
343
344
344
341
340
341
343
342
340
340
342
346
347
345
344
345
346
346
344
344
344
347
349
350
348
347
349
351
348
347
346
345
345
343
341
342
344
342
338
337
338
339
336
333
332
334
336
337
336
334
335
336
337
335
334
335
337
337
336
334
334
336
337
336
336
336
338
339
337
335
336
337
337
336
335
336
338
339
337
336
337
339
339
338
338
338
339
339
338
337
338
339
339
337
337
338
339
340
339
338
338
340
341
340
339
338
340
340
338
336
336
338
339
338
338
338
339
340
339
338
338
339
339
338
336
337
339
340
338
337
339
340
340
339
338
338
340
340
340
339
339
340
340
339
338
338
340
340
339
337
338
339
340
340
338
338
341
341
339
339
340
341
342
340
339
340
340
340
340
339
339
340
341
344
344
345
344
345
344
343
344
345
345
344
343
344
348
347
343
342
342
343
344
343
339
337
339
340
340
338
338
339
340
338
337
338
340
340
339
339
340
342
345
349
355
365
377
387
395
399
395
383
364
342
324
311
307
306
308
314
321
328
331
333
334
337
339
339
337
336
336
338
338
338
339
342
344
343
341
340
341
344
344
342
341
342
344
343
342
340
341
345
348
348
346
346
347
347
346
345
344
347
349
350
349
349
349
350
349
348
346
345
345
343
340
341
344
342
338
336
338
340
338
334
332
333
335
336
336
335
335
337
337
335
334
335
336
336
336
334
334
336
336
335
334
335
336
336
334
334
335
337
338
337
336
337
338
339
337
337
337
339
339
338
337
339
340
339
337
336
337
340
339
337
337
338
339
339
338
337
338
340
341
339
338
339
341
339
339
338
339
340
340
339
338
338
339
339
338
337
338
341
342
339
338
338
339
341
339
338
339
341
341
339
338
339
341
340
339
340
340
341
342
340
340
340
342
342
340
338
338
340
341
340
339
340
342
342
342
339
340
341
343
341
340
340
341
341
339
339
339
341
341
343
344
346
347
346
344
343
344
347
346
343
342
345
349
349
346
343
343
344
345
344
341
339
338
339
338
338
339
340
340
338
337
339
341
340
339
338
339
340
344
346
352
363
375
385
391
397
397
386
369
347
328
314
308
306
308
312
318
325
331
333
334
337
339
339
337
335
336
338
339
338
339
342
345
345
342
340
340
342
344
342
341
341
343
342
340
340
341
343
346
345
346
347
347
348
346
344
345
346
348
349
349
350
350
350
347
346
346
345
343
342
341
342
344
342
338
336
337
339
338
334
332
334
336
336
334
333
335
336
336
334
333
334
336
336
335
335
336
337
337
336
335
337
337
338
336
336
337
338
338
337
336
337
338
338
336
336
338
339
339
337
337
339
341
341
339
337
338
340
340
339
338
338
339
340
338
337
338
340
339
338
339
339
340
339
338
337
338
340
340
340
338
338
340
340
339
338
338
339
339
339
339
340
341
342
340
339
340
342
341
339
339
340
341
340
339
339
339
342
342
340
339
340
342
343
341
340
341
342
343
341
341
341
342
342
340
339
340
341
341
339
339
340
341
341
340
339
339
341
342
343
346
347
348
347
345
344
345
347
347
345
344
345
348
349
345
342
343
345
345
343
341
340
340
340
338
337
339
340
341
339
338
339
341
341
338
337
340
342
344
345
350
360
372
382
390
397
400
393
376
355
335
320
310
306
305
310
317
325
330
332
333
336
339
340
340
336
337
337
338
337
338
341
343
344
342
340
341
343
344
342
341
341
344
342
341
340
341
343
346
346
344
345
346
346
344
344
344
346
348
349
350
351
350
350
348
347
347
345
344
343
342
344
344
343
339
336
337
339
338
335
333
334
335
335
334
333
334
336
336
335
334
335
336
336
335
335
337
336
336
335
335
336
337
337
336
335
336
338
338
337
336
336
338
338
338
336
338
339
339
338
336
337
338
338
336
336
337
338
338
337
336
336
339
338
337
335
335
337
339
338
336
337
339
338
337
336
338
339
338
338
337
337
338
339
337
336
336
338
338
337
337
338
339
339
337
337
338
339
339
337
337
339
339
340
338
338
338
339
340
338
337
338
339
339
339
338
340
340
340
338
337
338
340
339
338
337
340
341
340
339
339
339
340
340
338
337
338
340
340
341
343
345
346
346
344
343
344
346
344
343
343
345
347
348
345
343
344
345
344
343
342
341
341
339
338
339
339
342
342
341
339
339
341
341
340
338
340
341
343
344
348
358
370
379
387
395
400
396
381
360
339
323
313
307
304
309
315
323
328
331
332
336
337
338
337
338
337
337
338
337
337
340
343
344
342
342
342
343
343
341
339
341
343
344
342
340
341
342
345
346
346
346
345
346
345
344
344
346
346
348
348
350
351
351
348
347
348
349
346
344
343
345
345
345
341
339
337
339
340
336
333
333
335
336
336
334
335
336
336
335
335
336
338
336
335
335
336
339
338
335
334
336
338
339
337
337
337
338
338
336
336
337
338
338
337
336
337
338
338
337
336
338
339
339
338
338
338
340
340
338
337
338
339
339
338
337
338
338
338
337
337
338
340
339
338
337
339
340
339
338
338
339
340
339
339
337
338
340
340
338
337
339
341
340
339
339
341
342
342
341
340
341
341
340
340
339
340
341
340
339
339
341
342
342
341
340
341
342
341
339
340
341
344
342
340
339
340
342
342
340
340
340
341
340
341
339
340
341
341
341
343
345
347
346
345
344
345
347
346
344
343
346
347
348
346
344
344
345
346
343
342
341
340
340
339
338
339
341
341
339
339
341
342
340
339
338
341
342
342
343
347
356
367
377
384
392
399
398
386
367
346
329
317
309
305
308
314
322
327
330
333
336
339
339
338
338
339
339
337
336
336
339
343
343
342
340
343
343
343
341
340
341
343
342
340
340
342
343
344
346
347
347
347
346
344
344
344
346
346
347
348
349
352
350
349
348
349
347
346
342
342
343
344
344
341
339
338
339
339
337
335
334
335
335
334
334
336
335
335
334
334
336
337
336
335
334
336
336
336
335
335
336
337
337
335
335
336
337
337
335
335
337
339
339
337
337
338
338
337
336
336
338
339
337
335
336
337
339
339
338
336
338
338
338
337
336
338
339
339
337
336
337
339
339
339
338
339
340
339
337
338
339
340
340
339
338
339
340
340
339
338
339
340
339
338
339
340
340
340
339
339
340
341
341
340
340
340
340
340
338
338
339
340
340
338
339
341
341
341
339
339
340
341
340
338
338
340
341
341
340
339
339
340
341
340
339
339
341
341
341
342
345
347
346
344
343
344
346
346
344
343
344
345
347
347
345
343
344
344
343
342
342
340
338
337
337
338
340
339
338
338
339
340
340
338
338
339
340
341
344
347
354
364
373
381
389
398
400
391
373
352
333
319
312
305
306
312
320
325
329
331
335
338
339
338
337
337
338
338
337
336
339
343
344
343
342
343
342
342
341
341
341
342
342
341
340
341
342
342
343
346
346
347
346
344
344
345
347
345
346
347
348
350
349
347
347
348
349
345
342
341
343
345
345
341
338
339
340
340
338
334
333
334
335
334
334
335
336
336
336
334
334
336
337
336
334
336
336
335
334
335
336
337
337
336
335
336
337
336
335
334
336
337
337
335
335
336
338
338
336
336
337
338
338
336
336
337
338
338
337
336
336
337
337
336
336
338
339
338
336
336
337
339
338
337
336
337
338
338
337
337
337
338
338
337
337
339
340
339
338
338
340
340
341
338
338
340
341
340
339
339
341
341
341
339
339
340
340
341
340
339
339
341
341
339
338
339
341
342
340
340
340
340
340
339
340
341
341
341
340
340
340
341
341
339
339
339
341
341
340
341
345
347
346
345
345
345
346
345
344
344
345
345
347
347
345
343
344
344
343
342
341
340
339
337
337
339
340
339
337
337
339
340
340
338
338
339
339
340
340
345
351
361
370
380
388
398
401
394
377
358
339
324
312
305
304
310
318
324
329
331
334
337
339
338
337
336
337
337
337
337
338
342
344
343
342
342
343
343
342
341
342
343
343
342
342
344
344
344
345
346
347
348
348
346
346
346
347
348
348
350
351
351
351
348
347
349
349
347
343
341
344
345
344
343
340
339
340
340
339
335
334
335
334
333
332
333
335
335
334
334
335
336
337
336
335
337
338
337
336
336
336
337
337
337
335
336
337
337
336
335
336
337
338
338
337
338
339
338
337
337
339
340
339
338
338
339
340
339
338
337
339
339
339
338
338
339
340
340
339
339
339
340
339
337
336
339
339
340
338
338
339
340
340
339
338
340
340
340
339
338
339
340
340
338
338
340
341
339
338
338
338
339
339
337
338
339
340
340
340
339
339
339
339
338
338
340
342
341
339
339
340
341
340
339
339
340
341
340
339
339
341
341
341
340
338
339
341
341
339
340
344
346
345
343
343
345
346
344
343
343
343
345
346
348
347
345
344
344
344
343
343
342
340
338
337
338
340
339
338
338
338
340
340
339
338
339
340
340
339
342
348
357
367
377
385
395
401
396
381
363
344
327
314
306
304
308
316
322
327
331
334
337
338
336
336
337
338
338
337
336
338
341
344
343
343
343
343
342
341
341
343
343
342
340
340
341
343
342
344
347
348
348
347
345
345
346
347
346
346
348
350
352
351
348
347
349
351
348
343
341
343
345
345
343
340
338
340
339
339
335
334
334
335
334
333
334
335
334
333
333
334
335
335
333
333
335
337
336
334
334
335
336
335
335
333
335
337
337
335
334
334
337
337
336
335
336
338
338
336
336
337
339
338
337
337
337
338
338
337
337
338
340
339
338
338
341
339
339
337
337
338
339
340
338
338
339
340
339
337
338
339
340
341
338
337
339
340
340
336
336
339
341
341
339
337
339
340
341
340
338
339
340
339
338
339
339
340
340
340
340
340
341
341
340
339
339
340
341
340
340
341
341
341
340
339
340
341
341
340
339
340
341
341
339
338
340
341
341
339
340
344
348
346
344
344
344
345
345
344
344
345
345
345
347
349
347
345
344
343
342
343
344
341
338
338
339
342
341
339
337
338
341
342
340
339
339
340
340
339
342
346
355
365
374
383
392
399
400
388
370
350
332
316
307
303
306
313
319
324
329
333
336
338
337
337
337
338
339
337
337
337
339
342
341
341
342
344
342
340
341
342
343
343
342
342
344
343
342
342
345
347
348
348
345
345
346
347
347
345
348
349
350
350
348
349
349
350
347
343
341
342
344
344
343
342
339
338
339
338
336
334
334
335
333
333
334
336
336
334
333
334
335
335
334
334
334
335
335
334
334
335
336
336
335
335
336
337
337
336
334
335
337
336
335
335
337
338
338
337
336
337
337
337
336
336
336
337
337
337
337
337
339
338
337
336
339
339
339
338
337
337
339
338
337
337
338
338
339
337
337
339
340
339
340
339
340
341
341
339
338
339
340
340
339
339
340
341
342
340
338
340
340
340
340
340
341
342
341
340
339
340
341
342
340
339
340
341
340
339
339
340
341
340
340
340
341
340
339
338
337
339
340
339
339
338
339
341
342
339
338
341
345
345
344
342
343
344
344
343
343
343
346
345
346
347
348
346
344
344
343
343
344
342
338
338
339
341
340
338
338
339
341
342
340
338
338
339
340
339
342
345
352
360
370
379
390
399
399
390
374
356
338
321
311
306
308
314
320
324
328
333
336
337
337
337
338
340
338
338
337
337
340
344
342
341
342
344
343
341
341
342
344
343
342
340
342
344
344
343
345
347
348
347
348
346
346
348
346
344
346
350
353
352
350
349
350
350
349
345
343
343
344
345
343
343
340
339
338
338
337
336
335
334
334
335
335
336
335
334
334
335
336
335
335
335
335
337
335
334
336
336
336
335
334
334
336
337
337
335
335
336
337
336
336
335
337
338
338
338
338
337
337
338
336
337
338
339
339
338
336
337
339
339
337
337
337
339
338
336
336
338
339
339
338
337
338
340
338
336
336
338
340
339
338
338
339
340
340
338
338
338
339
339
338
338
339
340
340
339
338
339
341
342
339
339
339
342
341
340
340
341
341
341
340
339
340
341
340
339
338
339
341
340
339
339
341
342
341
340
340
341
342
340
339
338
339
341
341
340
339
341
345
347
345
345
345
345
345
344
343
343
346
346
345
347
346
345
344
342
343
345
346
342
337
336
338
340
340
339
339
340
341
340
338
339
339
339
339
339
340
343
349
356
366
376
386
396
400
394
379
361
342
324
311
304
303
309
315
320
325
332
335
336
336
336
337
337
337
336
336
337
338
340
340
341
342
343
342
341
341
341
343
343
341
340
342
343
343
341
343
346
348
349
346
345
346
347
347
345
345
348
351
351
350
349
349
351
350
346
343
344
345
344
343
343
342
341
339
339
338
337
336
335
334
334
335
337
336
335
335
336
338
337
335
334
335
337
337
336
335
336
337
336
335
335
336
337
337
335
334
337
338
337
335
335
336
337
337
336
335
336
338
338
336
336
338
340
340
338
336
337
338
339
337
337
338
340
340
338
338
339
340
339
337
337
339
340
339
338
337
338
339
339
338
337
339
339
339
338
337
338
340
339
337
338
340
341
341
340
339
340
340
339
337
337
338
340
339
338
337
340
342
342
339
338
339
341
341
339
339
340
341
340
339
339
339
341
340
339
339
341
341
341
340
340
341
342
341
339
339
343
345
346
344
343
344
346
346
345
343
343
344
345
345
347
347
345
344
342
342
343
344
343
338
338
340
343
341
338
338
339
340
339
338
338
340
341
341
339
340
343
349
356
364
374
383
393
399
396
385
369
350
331
315
307
305
308
313
318
323
330
336
337
335
336
337
338
337
336
336
338
339
341
342
343
343
344
343
341
339
341
342
342
341
341
342
343
343
341
343
346
349
348
347
345
346
348
348
345
345
348
351
350
348
348
350
351
349
346
342
342
344
343
344
344
342
341
338
337
337
337
335
334
333
333
335
337
336
334
334
335
337
337
336
335
335
336
337
336
335
336
337
337
336
335
336
337
338
336
336
338
339
336
335
335
337
340
339
338
338
338
339
338
336
336
337
339
338
338
337
338
339
340
338
337
338
339
339
338
337
339
339
339
338
338
340
342
340
338
337
338
339
339
338
338
340
341
340
338
338
339
341
341
339
337
339
341
339
338
338
339
340
341
340
339
339
340
340
340
340
341
342
342
339
338
339
341
342
340
340
341
342
341
339
339
340
341
340
339
339
341
341
340
339
339
341
342
341
339
339
340
343
345
345
344
345
346
346
344
343
344
345
345
344
347
349
347
345
343
342
344
345
344
339
338
340
341
340
338
338
340
340
340
339
339
340
341
340
339
338
341
345
353
362
371
381
391
399
398
389
374
355
335
318
309
305
307
313
318
324
330
334
336
337
337
337
337
336
335
335
337
338
339
340
341
342
343
342
342
341
341
341
342
340
340
341
343
342
341
341
344
346
346
345
345
346
347
347
346
345
348
351
351
349
348
348
348
348
346
343
342
343
343
342
342
343
341
339
338
339
339
337
335
332
332
334
337
336
334
334
336
