492
498
508
514
509
500
501
510
514
508
500
501
513
520
517
509
509
516
521
516
508
509
517
521
515
508
509
517
521
520
516
518
525
528
522
514
515
523
526
522
519
522
530
533
527
520
521
527
528
520
511
513
521
526
520
509
506
511
516
512
502
500
506
511
507
500
501
508
512
507
500
500
507
511
506
499
501
508
513
509
501
502
510
514
510
501
502
509
513
509
501
500
508
514
510
503
504
510
515
509
502
502
511
516
511
503
503
511
515
511
503
504
513
517
512
503
504
511
516
511
503
503
510
517
511
503
503
511
516
511
502
504
512
517
512
505
505
512
517
513
506
506
514
518
514
505
506
513
518
515
506
506
513
519
514
506
507
515
520
516
508
507
513
518
514
506
507
514
518
513
506
506
513
518
514
506
509
512
518
514
507
508
515
518
513
504
504
512
518
515
507
510
521
526
521
512
512
519
524
521
512
512
518
524
524
519
515
519
524
519
511
511
517
519
513
505
505
513
519
514
506
505
511
516
513
506
506
513
518
514
510
515
531
551
561
568
581
599
607
589
556
526
501
486
469
455
455
470
487
491
490
494
505
515
513
504
502
508
514
511
503
503
512
522
520
512
511
517
522
517
510
509
516
523
519
509
508
515
520
518
515
517
525
531
527
517
515
521
526
523
517
519
528
533
529
521
520
526
532
524
513
511
518
524
520
511
506
511
516
512
504
498
503
509
507
499
498
504
511
507
499
498
505
511
507
500
498
504
511
508
500
499
506
512
509
501
500
507
514
510
502
499
506
514
510
501
502
509
516
512
504
502
508
515
512
504
502
508
515
511
503
501
508
513
511
503
502
509
516
513
506
504
510
516
513
506
504
510
516
513
506
504
511
517
513
505
505
511
517
513
506
504
511
519
515
506
504
510
518
515
507
505
511
518
515
508
507
512
518
515
507
505
512
518
514
506
505
512
518
516
507
504
509
517
515
507
505
511
517
514
506
504
510
517
514
506
504
511
519
516
508
507
516
526
524
515
513
519
525
521
513
511
519
526
526
521
515
517
523
521
514
512
517
521
513
505
503
509
517
515
509
507
513
519
516
508
505
511
519
517
511
513
526
546
558
564
574
593
607
598
570
539
514
496
475
458
453
465
483
490
490
494
502
513
512
504
502
507
516
513
506
503
508
518
519
512
510
515
521
519
512
510
515
522
519
511
507
514
521
519
515
515
521
528
525
519
515
520
527
525
519
519
527
533
531
524
522
525
532
526
515
510
516
523
521
513
508
510
516
514
507
500
502
508
507
500
497
502
511
510
502
498
502
512
510
504
501
506
513
510
502
499
504
512
511
503
500
504
512
510
503
499
505
513
511
503
499
504
512
511
504
501
506
514
513
505
502
506
514
512
505
501
506
514
512
504
501
507
516
513
506
501
506
513
512
504
502
507
515
514
506
501
507
514
514
507
504
510
518
515
507
504
510
519
517
509
505
510
518
515
508
504
508
518
515
509
505
509
516
515
507
504
510
518
516
508
504
510
519
517
510
503
511
519
517
510
507
511
519
517
509
506
511
519
518
512
507
512
519
517
510
505
517
525
525
517
511
516
524
523
517
513
517
525
524
522
517
519
524
523
516
513
518
523
517
508
504
509
516
515
509
505
509
516
515
507
504
509
518
517
511
509
519
538
552
560
569
586
604
603
580
549
523
503
481
461
452
460
477
488
489
490
499
510
513
507
502
506
515
514
506
500
505
516
519
514
508
514
521
520
513
509
512
519
518
510
507
512
520
519
514
513
519
525
524
517
512
516
524
525
518
516
523
532
532
524
519
523
531
529
517
509
514
523
523
517
509
509
514
515
509
502
502
508
508
501
496
501
509
510
504
499
503
511
510
503
498
502
510
510
503
498
503
511
512
506
502
505
514
513
505
501
506
514
513
505
499
504
513
514
506
501
506
515
515
508
501
505
514
514
507
501
506
515
514
507
502
507
515
516
510
505
508
515
516
509
503
507
515
518
509
504
508
517
517
510
505
508
516
516
509
503
508
516
517
510
505
509
517
518
511
505
508
517
518
510
504
508
516
517
512
505
508
515
517
511
504
508
517
519
511
504
509
518
519
512
504
508
517
517
511
506
510
519
517
510
505
510
518
518
511
506
513
524
526
518
511
514
522
524
518
514
517
525
525
521
517
518
524
523
516
512
515
522
519
510
503
507
515
517
510
503
506
515
517
511
504
507
515
518
512
507
515
531
546
554
563
579
599
605
588
558
534
513
491
466
452
457
473
483
485
486
497
510
515
508
500
503
511
515
509
502
505
515
521
518
511
512
520
522
516
510
512
519
521
515
508
512
520
522
516
513
519
527
527
520
514
516
524
526
520
515
521
531
533
527
519
522
531
532
521
511
513
522
526
519
512
510
514
516
511
504
503
509
510
504
499
503
511
512
505
498
502
511
514
507
500
503
511
513
507
499
502
510
512
507
500
503
511
513
507
501
503
511
513
507
500
504
513
516
508
499
501
510
514
509
502
504
513
515
508
501
503
511
514
510
503
505
513
516
510
503
506
514
516
510
502
502
512
515
510
503
506
515
517
511
504
505
516
516
511
504
506
514
518
512
504
505
514
517
511
503
505
513
516
511
505
508
515
517
511
504
507
516
519
513
505
507
515
517
511
505
508
516
517
511
504
508
515
518
513
505
507
515
518
512
505
506
514
519
515
506
509
521
527
521
511
512
521
525
521
513
515
521
525
521
517
518
521
523
518
512
515
520
521
511
503
505
513
517
512
504
506
514
517
511
504
507
515
518
514
507
514
528
543
552
559
575
595
606
596
569
544
522
500
475
456
454
466
480
484
486
494
505
512
509
503
504
511
515
510
503
504
512
519
518
511
513
519
523
517
509
511
520
524
518
510
511
518
523
518
513
517
525
525
522
514
515
523
527
523
515
519
529
534
529
519
519
527
531
524
512
512
519
524
519
510
509
512
515
510
504
502
506
509
504
498
500
507
511
505
497
498
506
512
507
499
502
510
513
508
499
500
508
512
507
499
500
508
513
509
501
501
508
511
507
501
503
510
513
508
501
502
509
514
509
501
502
510
514
508
500
501
508
512
508
501
504
512
516
510
502
502
509
514
511
504
505
513
518
513
504
503
511
517
513
505
505
512
517
513
505
505
512
517
513
505
505
512
517
514
506
506
513
517
514
505
507
514
519
514
506
506
514
518
512
506
507
513
517
513
505
506
512
517
513
507
507
514
521
516
508
508
515
520
516
508
507
515
522
519
510
508
519
528
525
517
515
522
526
522
514
514
520
525
521
517
519
523
526
521
512
512
519
522
514
504
504
511
517
513
504
504
512
518
513
504
504
511
517
513
505
508
520
537
548
555
568
588
606
603
581
557
535
511
484
461
454
463
476
482
482
490
503
511
510
504
504
510
515
511
502
501
508
518
519
512
511
517
523
519
510
510
517
524
518
511
511
518
524
519
511
514
523
531
526
517
515
523
530
526
517
517
527
534
531
523
521
527
532
528
516
513
519
525
522
514
512
513
516
514
506
505
508
510
506
497
498
505
511
507
500
499
505
512
508
501
500
505
511
509
502
501
507
513
510
502
500
508
513
510
501
501
507
514
511
504
503
509
515
511
503
502
508
514
511
503
502
507
515
513
504
503
508
516
512
503
501
508
516
511
503
502
508
515
511
504
502
509
515
511
503
502
509
515
513
506
504
509
516
513
505
503
510
517
514
507
505
511
518
513
505
504
510
517
513
506
503
510
518
515
507
504
510
517
515
508
506
511
518
515
507
505
512
518
515
507
505
511
517
514
507
505
510
518
515
508
506
512
520
517
508
504
514
527
526
518
514
519
526
524
515
511
518
525
523
518
519
522
526
523
513
511
518
525
518
506
502
509
518
516
508
506
512
519
517
508
504
510
518
516
509
508
518
532
543
551
562
580
600
604
589
565
542
520
492
465
454
458
472
480
481
485
498
509
510
504
501
506
513
511
505
502
507
515
516
512
511
515
522
519
510
508
513
520
519
511
507
512
521
518
510
511
520
527
524
516
514
520
526
524
516
516
525
534
532
523
519
524
531
529
518
510
514
522
522
515
511
512
516
513
507
504
506
508
506
500
496
501
509
508
501
498
503
511
510
501
497
502
511
509
503
499
505
512
511
504
500
505
513
512
504
501
506
514
512
504
500
505
513
512
504
501
504
515
514
506
501
506
514
513
506
502
507
514
513
508
503
506
514
513
506
502
507
515
514
507
503
508
515
513
506
503
508
516
515
507
502
507
514
513
506
502
508
517
516
508
503
508
516
515
508
503
508
516
515
509
505
510
518
517
510
505
510
516
515
507
502
508
517
517
509
504
509
518
518
511
505
511
518
517
509
505
510
518
518
511
506
511
519
518
511
507
512
524
526
519
513
518
525
524
517
512
516
525
525
518
516
521
526
524
516
511
516
524
521
510
503
508
517
518
511
505
511
519
518
510
505
508
516
517
509
503
512
526
538
547
556
573
595
606
598
575
553
530
503
474
457
456
468
476
480
483
494
506
509
506
502
506
513
513
506
502
505
514
517
514
510
514
521
521
514
507
513
522
522
515
508
511
520
522
516
513
519
528
529
522
515
518
526
527
521
515
522
532
532
524
518
521
529
531
523
512
513
522
522
516
511
513
516
513
507
503
504
509
508
501
496
501
509
509
502
496
500
508
510
505
499
502
510
510
503
498
501
510
511
505
499
502
512
513
506
500
503
511
512
506
501
504
512
514
508
501
504
511
513
507
501
504
511
514
508
501
505
514
515
509
503
505
514
516
509
503
507
515
517
510
504
507
516
516
510
504
507
515
518
511
504
507
515
516
510
503
506
514
516
510
504
508
515
515
508
503
507
515
517
511
504
507
515
517
512
505
507
514
517
512
505
508
516
518
513
506
509
516
520
514
506
508
515
518
513
507
510
518
519
513
506
509
517
519
513
507
510
520
526
522
515
516
524
526
520
513
516
524
525
519
514
520
526
525
518
511
515
523
525
514
503
506
515
517
513
506
508
515
519
514
506
508
516
518
511
501
508
521
533
542
550
568
588
602
600
584
563
543
516
486
462
455
464
475
479
479
489
503
509
506
501
504
511
515
509
502
504
512
516
514
510
512
521
523
517
510
511
518
521
514
507
510
518
521
515
507
513
524
527
520
513
515
523
526
520
512
516
528
533
528
519
520
527
530
526
514
511
518
523
518
510
512
515
515
511
504
507
510
511
505
498
501
508
513
505
497
500
508
512
507
498
500
508
512
507
498
500
507
511
507
498
501
508
513
508
501
503
510
513
508
501
503
509
513
508
500
501
509
514
510
501
501
509
514
509
501
502
510
515
510
501
502
510
514
510
502
503
511
517
513
506
506
513
518
513
505
506
514
518
512
504
505
512
518
514
507
509
516
521
515
506
507
514
519
513
505
505
513
518
513
505
506
514
519
515
507
508
515
519
514
507
507
513
518
514
506
507
517
519
515
506
507
514
518
512
505
506
515
520
515
506
507
514
519
515
507
507
516
524
522
514
513
520
526
521
513
513
521
526
521
513
518
525
527
521
513
513
520
525
517
506
504
512
519
515
506
506
513
517
513
506
507
514
519
513
506
507
517
528
536
545
560
580
597
600
589
571
552
527
495
468
459
463
473
477
477
486
500
511
509
503
504
510
516
511
503
503
510
516
515
512
511
517
522
517
511
510
516
522
519
512
512
517
522
517
510
511
521
530
525
516
515
521
526
523
515
516
526
534
530
521
521
526
531
528
518
513
517
523
521
513
512
516
518
513
506
506
510
511
505
498
498
504
510
510
499
497
502
510
509
500
499
505
512
509
501
500
508
513
510
503
501
507
514
510
501
500
508
514
510
502
500
508
513
511
502
501
509
516
513
504
502
508
514
512
503
501
508
515
512
504
502
508
515
512
504
502
507
515
513
504
502
509
517
514
506
505
512
518
515
507
504
509
516
514
506
504
509
516
512
507
505
511
518
516
508
505
510
517
515
507
505
511
519
517
509
507
512
518
514
507
505
512
519
515
506
504
511
519
516
508
505
511
517
515
508
506
511
518
515
508
505
510
517
514
507
504
511
523
525
518
514
518
525
523
515
511
517
526
524
515
516
522
527
523
514
512
517
525
521
510
504
510
518
515
508
507
513
520
516
509
505
510
517
515
508
505
513
526
533
539
552
572
592
600
594
578
560
537
507
475
457
456
465
472
475
481
493
505
506
502
500
505
513
511
503
499
504
512
512
509
508
513
520
519
512
508
512
520
518
511
508
513
520
519
512
510
518
528
526
518
513
518
526
525
517
512
520
531
531
522
518
521
530
529
521
513
514
521
520
513
509
512
516
513
506
502
507
511
507
499
496
502
510
509
501
496
501
509
508
502
498
503
511
511
503
499
503
511
511
504
499
502
511
511
504
500
504
513
514
507
501
506
514
512
505
502
506
513
513
506
502
507
515
514
507
502
507
514
514
506
501
506
513
513
505
501
507
515
514
508
502
506
514
515
508
504
510
518
518
510
504
508
516
515
508
504
508
515
516
508
502
508
517
516
509
505
509
518
518
512
508
511
519
518
511
505
509
518
518
511
506
510
518
518
510
505
509
518
518
510
505
510
518
519
511
506
510
518
518
510
504
508
516
516
510
504
509
519
523
518
512
515
523
523
516
511
513
522
523
518
514
521
526
524
516
510
514
523
523
513
505
508
516
517
511
505
508
517
517
510
504
508
516
517
511
505
510
522
530
537
547
565
588
601
600
588
572
551
521
491
465
460
466
472
474
478
489
504
507
505
502
506
513
514
508
502
504
511
514
512
509
513
521
521
515
508
510
519
521
515
509
511
518
519
513
506
513
525
528
520
513
517
524
525
519
512
518
531
534
527
520
523
529
531
526
516
516
522
524
518
512
514
517
515
509
503
507
511
508
502
497
500
509
511
504
497
500
507
511
505
498
500
509
511
505
498
502
510
511
505
498
501
509
511
505
499
503
511
513
508
501
504
513
514
508
501
505
512
515
508
501
503
512
514
508
500
503
512
514
509
501
504
513
516
510
503
506
515
516
510
503
506
514
517
511
504
506
515
518
512
504
507
516
519
513
505
507
515
518
512
505
507
515
517
511
504
508
515
518
512
506
507
514
517
511
504
506
515
519
514
505
507
515
519
514
507
509
516
518
513
506
508
516
519
513
507
508
514
517
513
506
508
516
520
513
506
508
517
524
520
512
513
520
524
519
512
514
522
525
519
512
517
526
526
518
509
512
520
523
514
503
504
513
517
511
504
505
513
517
512
504
506
514
518
514
505
507
518
526
532
540
557
578
595
600
592
578
561
535
501
470
458
461
468
471
473
484
500
508
506
501
504
511
515
510
502
504
512
512
512
510
513
519
522
516
508
510
518
520
515
508
512
518
522
517
509
512
524
531
525
516
516
524
528
522
514
516
527
534
529
520
522
528
531
525
516
514
519
524
520
512
513
519
519
511
503
506
513
513
505
497
500
508
512
508
500
501
508
511
506
503
501
508
514
507
500
501
508
513
508
501
503
509
512
507
500
502
510
513
508
500
503
511
515
510
502
503
510
515
509
500
502
509
514
511
503
504
510
515
512
504
504
508
514
510
504
505
512
516
511
503
504
511
515
511
502
503
511
517
512
504
505
512
518
514
506
507
514
519
514
505
505
514
519
513
505
506
515
519
513
504
506
513
518
514
504
504
513
519
515
505
505
512
518
514
505
505
512
518
513
506
506
514
519
514
507
507
514
520
515
506
507
515
520
515
507
507
515
524
522
515
515
521
525
521
514
514
520
525
522
513
515
524
527
520
511
511
518
524
519
507
504
511
517
513
504
504
512
517
514
506
506
512
518
514
506
507
516
526
531
536
551
573
591
598
596
585
569
545
511
479
462
460
465
468
470
480
496
508
505
500
501
509
515
511
502
503
510
516
513
509
511
519
524
518
509
508
515
521
518
510
510
517
522
517
509
509
520
529
525
515
515
523
528
523
515
514
522
533
531
522
520
527
534
531
522
516
518
523
520
513
512
519
520
514
504
503
510
514
506
498
496
505
512
507
499
498
505
511
508
500
499
505
511
509
501
499
505
511
508
500
500
507
512
509
500
498
504
511
507
500
499
505
511
510
504
502
508
514
509
502
500
507
513
510
502
502
509
515
510
502
501
508
515
512
503
501
508
515
512
504
503
510
517
513
504
502
508
514
512
505
503
509
515
512
504
502
508
515
512
505
503
510
517
514
506
505
512
518
514
506
503
510
517
515
506
505
510
517
516
508
507
512
518
516
509
506
512
517
515
507
505
512
519
515
508
506
512
518
516
509
507
513
520
517
509
507
513
523
524
518
515
520
526
524
517
515
520
526
523
515
514
524
530
524
514
512
519
527
524
512
506
510
518
516
508
506
511
518
515
507
505
511
519
516
508
505
511
522
527
531
543
563
584
595
596
591
578
559
526
492
469
467
466
468
469
478
490
504
506
501
501
508
514
512
504
502
507
515
515
510
510
516
523
521
512
508
515
523
520
511
509
514
522
519
511
508
516
528
527
519
515
520
526
523
514
512
519
530
530
522
518
522
529
528
520
515
516
522
520
512
510
517
521
515
505
502
508
513
508
498
495
501
509
508
501
499
505
512
509
502
498
503
512
510
502
499
505
513
511
503
500
505
514
512
504
502
508
515
513
505
500
506
515
512
504
501
506
515
513
505
501
507
514
513
505
501
507
515
513
505
500
507
516
513
503
500
506
516
515
506
502
508
515
513
506
503
509
516
514
507
504
508
515
513
506
503
509
516
515
507
503
507
515
515
508
504
508
514
515
507
503
508
516
515
507
504
508
516
515
508
505
511
517
515
508
505
511
518
517
510
507
511
518
517
509
504
509
517
515
507
504
510
518
516
508
504
510
519
521
516
512
517
524
523
514
511
515
523
522
515
509
518
528
524
514
509
514
522
522
513
503
506
514
516
509
502
506
515
514
507
504
509
517
516
508
504
508
523
523
525
535
556
578
590
593
591
583
567
536
501
474
463
465
465
466
471
485
500
505
501
499
506
515
514
506
500
504
513
512
507
506
514
522
520
511
507
512
520
520
513
508
512
519
518
511
507
514
526
527
520
515
519
527
526
518
513
518
528
531
524
519
523
531
530
523
518
518
523
521
515
512
516
521
516
507
502
507
515
511
500
494
499
509
510
503
497
501
510
510
503
496
501
511
510
503
498
503
511
511
504
499
504
512
512
504
499
504
512
512
506
501
506
514
514
507
502
507
515
515
507
502
507
515
514
506
501
506
515
515
508
504
508
515
515
509
503
507
516
515
507
504
509
516
516
510
504
508
516
516
511
505
508
517
517
510
504
510
517
517
510
505
509
518
519
512
509
510
518
518
510
503
507
515
517
512
505
509
517
516
509
504
509
517
517
510
506
510
517
519
512
507
510
517
517
510
504
507
516
517
513
508
512
520
520
514
507
511
518
520
517
513
516
524
525
518
512
516
524
524
518
512
518
529
527
517
510
514
523
524
517
506
506
513
516
511
505
509
518
518
511
504
508
516
516
510
505
509
519
524
524
530
549
571
586
592
593
590
579
551
515
484
467
466
465
465
468
480
497
505
503
503
505
513
515
508
501
504
511
513
507
505
511
520
521
513
507
510
518
520
515
508
511
519
521
515
509
512
522
527
522
514
517
527
527
520
513
515
524
531
527
521
523
531
531
526
519
519
523
522
516
511
514
523
520
510
502
505
514
513
503
496
499
508
510
504
498
501
509
510
504
497
500
508
509
504
498
501
509
511
505
499
503
511
513
504
499
503
512
514
508
501
505
513
515
508
500
502
510
512
506
501
506
514
515
508
502
505
513
515
508
501
504
513
514
508
500
505
514
516
511
503
506
515
517
510
502
505
512
513
508
504
507
514
516
509
502
505
514
517
510
503
505
513
516
511
504
506
514
517
511
503
504
513
517
511
503
505
513
515
509
501
504
513
516
510
503
505
514
517
511
505
507
515
516
511
504
507
514
516
512
506
509
514
518
513
507
510
517
519
518
513
516
524
526
520
513
513
521
524
519
512
515
527
530
521
511
512
520
522
516
507
506
513
518
512
504
506
514
517
512
505
507
514
517
512
504
506
515
523
523
525
541
564
581
589
591
592
585
563
528
493
473
468
466
463
463
473
492
503
502
498
503
512
515
509
501
501
509
514
510
504
509
518
522
516
508
509
516
521
516
509
510
517
521
517
509
510
520
528
525
517
517
524
529
524
516
517
523
531
529
521
520
526
531
527
520
519
521
523
518
510
512
519
521
512
502
504
511
514
506
496
497
505
511
507
499
499
507
511
506
498
499
507
512
508
500
501
509
513
508
501
501
509
513
508
499
500
509
514
510
501
503
510
515
510
502
503
509
515
510
504
505
512
516
511
503
507
511
514
511
503
503
512
517
513
505
505
511
516
511
504
505
512
518
513
505
505
512
518
512
505
505
512
517
511
503
504
512
517
514
505
506
513
518
514
506
506
514
518
514
505
505
513
518
514
508
508
515
520
516
508
507
514
520
516
507
506
514
519
513
505
505
514
519
515
507
506
514
519
515
507
507
512
520
515
507
506
513
518
517
512
513
521
526
522
513
513
520
526
523
515
514
524
532
525
513
512
519
525
521
511
506
510
515
513
505
506
513
518
513
506
506
512
516
512
504
505
512
520
520
521
535
557
578
586
591
594
591
575
543
505
480
469
467
463
461
470
488
502
503
498
501
510
516
512
504
503
511
515
512
504
506
515
522
518
510
511
515
522
519
511
509
516
522
518
511
511
519
526
526
519
516
521
528
523
515
514
522
530
530
524
524
530
535
530
521
519
521
524
520
512
512
519
524
517
504
503
511
517
511
501
498
504
511
508
500
499
505
511
508
500
499
505
513
510
502
500
507
514
511
503
500
507
514
511
503
502
507
515
511
505
501
506
513
511
504
502
509
514
512
504
502
507
513
510
503
500
507
514
511
502
500
507
515
511
503
501
507
515
513
504
502
508
514
511
505
503
509
516
513
505
503
509
515
512
504
503
509
516
514
507
505
510
516
514
507
503
507
515
514
506
504
509
516
513
505
503
509
517
516
507
505
511
518
516
507
505
510
518
515
507
503
510
517
515
507
503
509
516
514
507
503
509
517
515
507
504
511
519
518
514
512
518
524
523
515
512
517
525
524
516
513
519
530
528
516
511
515
524
522
514
508
509
517
516
509
505
510
517
516
508
505
510
518
516
508
504
509
519
522
520
527
547
571
584
590
594
596
586
558
520
488
473
469
464
460
466
482
499
505
500
498
508
515
514
505
500
505
513
513
506
504
511
521
521
512
508
513
520
519
511
508
513
521
519
510
506
512
523
525
519
515
519
527
526
520
516
519
527
528
524
521
525
532
531
524
519
521
525
523
515
511
515
522
519
509
502
507
516
515
504
496
499
507
507
501
496
500
508
508
502
497
502
510
509
501
496
502
510
510
504
499
503
510
509
503
499
506
512
511
505
500
504
513
514
506
501
505
514
514
507
501
506
515
515
508
503
507
515
518
510
503
506
513
514
508
503
506
514
515
507
501
506
515
515
509
503
507
515
515
508
503
509
517
516
509
504
508
515
516
510
504
508
516
516
509
504
508
516
517
511
505
507
514
516
510
505
508
516
517
509
502
508
517
518
511
505
508
516
517
510
506
510
517
518
511
505
508
516
518
511
506
510
518
518
512
506
509
517
519
516
513
517
524
525
518
512
515
523
525
520
513
515
526
529
519
510
514
522
523
516
509
509
514
516
510
504
507
515
517
511
504
507
516
517
511
504
507
515
520
521
525
541
563
579
588
592
597
592
569
533
498
478
472
467
461
462
476
493
503
502
499
504
514
516
511
503
506
513
515
510
503
510
521
524
517
509
511
520
524
518
509
511
519
522
516
508
510
519
525
522
515
517
525
526
521
513
515
523
529
527
521
522
529
531
525
518
519
524
524
516
509
512
520
522
511
501
503
512
515
505
495
497
506
510
505
497
500
507
510
504
496
499
508
511
505
497
499
506
510
505
497
500
509
512
506
498
498
506
512
506
499
500
509
512
508
500
502
509
513
508
501
503
509
512
507
500
502
511
514
509
501
502
510
514
510
504
505
512
515
510
504
505
512
516
511
503
504
512
517
512
504
505
513
517
513
506
506
513
516
511
504
506
514
519
514
505
506
513
518
513
506
509
513
518
514
505
506
514
518
515
508
508
515
519
515
507
508
514
519
514
505
506
515
520
515
507
506
513
518
514
507
507
515
518
513
505
506
513
518
517
513
515
522
526
522
514
514
520
526
522
513
514
523
532
527
515
513
521
528
523
513
508
512
516
512
506
506
513
518
515
508
507
513
518
513
506
506
513
520
521
519
531
553
575
585
589
596
598
583
550
512
484
473
470
464
461
469
485
499
500
496
500
510
516
511
502
501
508
515
511
503
505
516
523
520
512
509
515
522
520
510
508
515
523
519
510
509
516
524
524
518
516
522
528
525
516
515
520
526
527
521
520
525
532
529
522
520
522
524
520
513
512
519
525
517
503
500
509
516
510
499
496
503
511
506
498
497
504
512
507
499
498
504
511
508
499
497
504
512
508
499
498
505
512
509
501
500
505
512
509
502
500
505
513
511
503
501
507
514
510
501
503
508
514
512
505
503
507
514
512
505
504
510
517
514
505
503
509
516
513
505
503
509
516
514
507
505
511
517
513
505
504
510
517
514
507
503
509
518
514
506
502
508
516
514
504
502
510
518
516
506
502
509
516
515
506
503
509
516
515
508
505
511
517
515
508
504
510
517
515
508
505
511
518
516
508
504
510
519
518
510
506
512
519
518
511
507
512
520
519
516
516
522
529
526
518
514
518
525
524
517
512
518
530
529
516
510
515
524
524
516
509
511
518
516
509
504
508
517
516
510
506
511
518
516
508
503
509
518
521
518
525
545
568
580
585
592
596
590
563
526
493
476
471
465
459
464
479
496
502
499
497
505
514
512
504
499
505
513
513
504
503
510
521
521
513
508
512
520
519
512
507
512
520
517
511
507
511
521
524
519
515
519
526
525
518
513
518
525
527
523
520
525
532
531
524
520
523
527
524
517
512
516
524
522
511
504
508
516
515
504
496
499
509
510
504
498
501
509
509
503
498
502
511
511
504
498
502
511
511
504
498
502
511
512
503
499
503
511
512
506
501
505
512
512
504
498
503
512
513
506
500
504
512
514
507
502
506
513
512
507
502
506
513
514
508
503
507
515
517
511
504
506
514
514
507
501
505
514
516
508
501
504
513
515
509
502
506
515
515
509
501
505
513
515
509
503
506
514
516
510
503
506
513
515
510
505
508
515
516
509
503
508
517
519
513
506
508
516
518
512
505
508
516
518
511
505
508
515
517
511
505
509
517
519
512
506
508
517
518
514
511
516
524
525
519
512
514
523
525
519
512
515
526
530
521
512
514
522
525
518
511
511
513
515
511
505
508
515
517
511
503
507
515
518
512
505
507
516
521
519
520
536
560
578
586
591
598
597
578
543
506
483
475
470
462
461
473
490
501
501
497
503
512
514
507
501
506
513
515
508
501
508
520
523
515
507
510
518
522
514
507
510
519
521
516
508
509
517
525
523
516
517
524
526
521
514
516
523
528
527
522
522
529
532
527
520
520
525
525
519
510
512
519
526
514
503
503
511
515
507
496
497
506
510
506
498
499
506
510
505
499
501
508
511
506
499
501
509
513
507
500
501
508
513
508
500
502
509
513
508
500
501
508
511
506
499
502
510
514
509
503
504
510
514
510
502
503
511
516
511
503
502
510
514
511
503
505
512
516
510
503
504
512
517
512
504
506
512
517
513
506
506
513
517
512
504
505
512
518
512
505
505
512
518
514
505
506
511
516
513
506
506
512
517
511
504
505
513
519
514
506
506
513
518
514
506
507
514
519
515
506
507
514
519
514
507
507
514
519
515
507
506
513
518
514
507
508
515
520
517
513
514
520
525
519
511
512
519
524
520
512
511
519
530
526
515
513
519
524
520
513
509
512
517
513
505
505
513
519
513
505
504
513
519
515
506
506
514
520
519
517
529
551
572
582
586
595
600
589
559
520
491
475
470
463
459
467
484
498
501
497
499
508
515
511
502
501
508
515
511
503
504
514
523
519
511
509
515
521
518
510
508
516
523
519
511
508
515
524
525
519
517
522
527
524
517
514
519
526
527
522
520
525
530
526
519
519
522
524
519
512
512
518
524
518
506
503
510
517
512
500
496
502
509
508
500
497
505
511
508
500
497
504
511
508
500
499
505
512
509
502
500
507
514
510
502
500
508
514
512
504
502
508
515
512
503
501
506
513
512
505
503
508
514
511
504
502
508
515
512
504
502
507
515
513
505
502
509
517
515
506
503
510
516
514
506
504
509
515
513
507
505
508
516
514
506
503
509
516
513
505
503
508
516
513
506
504
509
517
514
506
505
510
518
519
507
504
510
518
517
510
506
511
518
517
508
506
511
518
515
508
505
511
518
517
510
507
513
520
517
508
504
510
517
515
508
504
510
518
516
511
513
520
527
524
517
514
519
526
524
515
511
516
529
531
518
511
516
524
522
514
508
510
515
513
506
503
510
518
515
506
502
508
518
516
509
504
509
516
519
516
523
541
564
577
584
592
600
594
567
532
500
482
476
467
459
462
476
493
500
499
497
506
515
514
506
502
505
514
513
506
504
513
523
522
514
510
514
521
520
512
507
513
520
519
512
507
512
522
525
520
516
520
527
527
519
514
519
527
529
526
522
526
533
531
524
519
523
526
523
516
511
515
524
522
510
502
506
515
514
503
497
501
510
509
502
497
502
509
507
500
496
501
509
508
502
498
503
512
511
502
497
503
512
512
505
500
505
513
512
505
499
503
512
512
505
499
505
513
512
506
501
505
512
512
506
501
504
513
511
504
500
505
512
513
506
502
508
515
515
507
502
506
513
514
507
502
506
513
513
507
502
507
515
515
508
503
507
515
515
508
504
508
517
517
509
504
508
516
515
509
504
507
516
516
510
505
509
517
517
511
506
510
518
518
511
506
511
518
519
512
505
509
518
519
511
505
510
519
519
511
505
509
517
518
511
505
509
517
518
512
511
517
524
523
517
512
516
525
525
517
511
516
526
530
521
511
513
521
522
516
510
509
514
515
508
503
507
515
516
508
501
506
514
515
509
502
506
514
517
514
516
533
556
571
578
586
597
600
580
545
509
487
476
468
459
456
471
489
497
498
494
500
511
513
508
501
504
513
515
508
501
507
520
523
516
510
513
522
523
515
508
511
518
521
515
509
512
520
524
521
516
519
526
526
518
511
515
523
526
523
519
523
531
532
525
518
522
526
523
516
511
514
523
525
515
503
505
514
516
508
497
499
506
508
504
496
499
507
510
504
497
500
510
512
506
500
502
509
511
506
499
502
512
514
507
500
504
512
513
507
501
503
512
515
508
501
503
512
514
509
502
504
511
514
508
500
504
513
516
509
502
505
513
515
509
503
505
513
516
511
504
507
515
517
511
504
506
514
517
510
502
504
513
517
510
503
504
514
517
511
504
508
516
519
513
504
506
515
519
512
503
506
515
518
513
506
507
516
520
515
507
507
515
519
512
505
507
515
518
513
506
508
516
517
511
505
508
515
519
514
506
510
517
520
514
507
508
516
519
514
511
517
525
527
521
512
514
522
526
520
513
514
522
529
524
513
513
520
524
519
511
511
515
516
511
504
506
514
518
512
505
507
513
516
511
505
508
514
518
516
514
526
547
567
576
581
592
600
589
559
522
495
480
470
459
454
466
484
497
498
494
496
509
515
509
502
502
509
514
509
501
504
516
523
518
508
509
517
521
517
509
510
517
522
516
508
509
517
522
522
517
518
525
528
522
514
516
524
528
527
521
523
530
533
528
520
520
526
525
518
511
513
520
524
518
505
503
512
518
513
501
500
507
513
508
498
499
506
511
507
499
500
509
513
508
499
500
508
513
508
501
502
509
514
510
502
502
509
515
509
500
501
509
514
509
501
502
509
514
509
502
503
511
515
509
501
502
509
514
509
502
504
510
514
510
502
503
511
516
511
502
504
510
516
512
503
504
512
518
513
504
504
512
517
513
505
505
511
516
511
504
505
511
516
512
504
505
512
518
513
505
506
512
516
512
505
506
514
519
514
505
506
512
518
514
505
505
513
518
513
505
505
513
518
513
505
505
512
518
513
506
506
513
519
515
507
507
513
518
514
510
515
524
528
522
513
513
519
525
521
512
512
519
528
527
515
512
518
524
520
513
512
514
517
512
505
506
513
519
515
506
505
512
517
512
505
505
512
518
517
514
522
541
562
571
577
588
601
598
572
535
506
487
475
463
453
459
475
491
495
494
497
507
515
511
502
501
509
516
511
502
502
513
523
520
511
509
516
523
520
512
512
517
522
519
511
509
516
522
521
515
516
522
528
524
515
514
522
529
527
523
524
530
535
530
522
521
526
528
521
514
514
521
525
521
509
504
510
517
514
503
498
504
511
508
499
499
507
513
509
500
498
504
511
508
501
501
507
512
509
502
501
506
512
509
502
501
507
514
511
504
502
509
515
511
503
502
510
516
513
504
502
507
514
510
503
502
508
515
512
504
502
509
516
513
506
504
510
515
512
504
504
509
516
513
507
505
511
518
514
505
503
509
516
512
506
504
510
516
513
505
505
511
518
515
507
506
512
519
516
507
505
512
519
514
506
504
511
518
515
507
505
511
517
515
507
506
512
519
517
509
506
511
519
515
507
505
512
521
517
509
506
513
520
517
509
506
512
519
517
510
512
520
527
523
514
512
517
526
523
516
513
518
525
526
518
512
516
522
520
511
510
513
516
511
503
502
510
518
515
505
502
509
517
515
507
503
509
517
516
512
515
532
553
566
571
580
596
