507
502
501
504
509
517
523
523
521
516
509
503
501
504
508
516
522
523
521
518
513
510
510
513
517
524
528
529
526
519
515
510
509
512
517
524
529
530
528
522
515
509
508
511
516
524
532
534
531
524
516
508
507
508
513
519
526
527
524
519
513
507
504
505
508
514
519
519
517
513
506
501
501
504
508
515
520
520
517
512
505
500
499
502
506
514
519
520
517
512
505
500
500
503
508
514
520
522
521
518
514
514
519
530
542
557
570
577
582
583
582
583
587
591
595
597
593
582
565
546
524
503
488
479
473
472
472
470
466
462
457
456
461
469
479
491
501
504
504
502
496
493
495
499
507
515
520
521
517
512
504
498
498
501
506
513
518
518
515
510
503
499
500
505
511
519
525
525
522
517
510
504
503
507
512
519
525
525
523
517
511
506
506
509
513
520
525
526
523
517
510
505
504
507
512
519
525
526
526
523
517
512
512
514
519
526
531
531
528
522
516
511
510
514
519
526
531
533
532
529
523
518
518
521
524
531
535
535
532
527
520
515
515
519
523
529
531
530
526
521
514
509
509
512
518
525
529
530
525
518
509
502
501
504
509
516
521
521
517
510
501
495
494
497
502
510
515
515
511
506
499
494
494
498
503
510
515
516
513
507
499
494
495
499
503
511
516
517
514
509
502
496
496
498
504
511
515
516
513
509
502
497
496
499
504
511
516
517
512
509
502
497
497
501
505
512
517
518
514
510
503
499
498
501
505
512
517
517
512
508
501
495
496
500
506
513
518
518
514
509
502
498
497
500
505
513
517
517
514
509
502
497
497
501
507
514
518
518
514
509
502
498
498
502
508
514
519
519
516
510
503
499
499
502
508
516
520
520
516
511
504
499
500
503
508
516
520
520
517
513
505
502
502
505
510
519
522
522
519
514
507
499
501
506
510
517
521
521
518
513
506
501
501
505
510
518
524
523
519
514
507
502
503
506
511
519
523
523
519
514
506
502
501
505
511
518
522
522
518
513
507
502
503
507
512
519
523
523
520
515
508
504
503
507
512
519
523
523
519
514
507
503
502
506
511
518
521
522
519
514
508
503
503
506
511
517
521
521
519
513
506
502
503
507
512
519
523
522
519
513
507
502
503
506
511
518
522
523
519
513
505
501
501
504
510
517
522
522
519
514
507
503
500
506
511
519
522
522
518
514
508
505
507
512
518
525
529
529
525
520
513
511
510
514
518
526
529
529
526
520
512
508
509
512
518
526
532
534
531
525
515
509
509
513
518
525
530
530
526
520
512
508
508
509
513
518
520
519
515
510
503
500
500
507
511
517
522
522
519
514
506
502
501
504
509
517
521
520
517
512
505
502
503
506
512
519
523
525
520
517
513
512
518
528
540
555
567
574
577
578
577
579
584
592
599
604
602
590
577
557
537
518
503
493
486
482
478
473
466
460
454
453
458
466
476
488
496
499
499
498
493
491
492
497
504
513
518
518
514
508
502
497
497
501
507
514
518
518
514
508
501
498
498
504
512
521
526
525
522
516
507
502
502
506
511
519
523
523
520
515
508
504
503
507
513
521
525
524
521
515
508
504
505
509
512
520
524
525
524
521
516
512
513
516
523
527
531
530
526
520
512
509
510
514
520
526
530
530
528
524
519
520
517
522
527
533
536
534
530
524
516
513
514
518
523
528
530
527
522
516
510
507
508
512
517
524
524
526
523
516
507
501
500
504
510
517
520
519
515
508
500
494
494
497
503
510
514
514
510
505
498
495
495
498
505
512
515
514
510
504
498
495
496
499
505
513
516
516
512
506
499
495
495
498
504
511
515
515
513
507
501
497
498
502
507
513
516
516
512
507
498
496
498
502
508
515
519
518
513
507
499
497
497
501
506
514
517
517
513
506
499
496
497
502
507
514
518
516
512
507
501
497
498
501
506
513
517
516
512
506
499
495
498
504
508
516
519
518
513
507
500
497
499
503
509
516
519
518
514
508
503
498
499
504
510
517
520
520
516
510
503
500
502
507
511
517
521
519
514
509
501
499
500
503
510
517
520
520
516
510
503
499
499
503
509
516
519
518
514
509
502
499
500
505
510
518
521
520
517
511
504
501
502
506
512
518
521
520
516
511
504
500
502
505
511
519
521
521
516
511
504
500
502
506
513
520
524
523
518
512
504
500
502
506
512
519
523
521
517
511
505
501
503
507
513
520
523
522
517
512
504
500
501
506
511
517
520
521
516
511
505
502
503
508
513
520
522
520
516
510
504
501
502
506
512
520
524
522
517
511
504
500
501
506
511
519
523
524
518
512
506
503
504
507
513
520
523
522
519
513
507
505
509
515
521
528
531
529
524
518
511
508
509
513
519
527
528
528
524
518
511
508
509
512
518
525
529
530
528
524
516
512
511
512
517
524
528
528
524
518
512
508
509
512
516
521
522
520
515
509
502
499
501
506
512
518
521
520
515
511
501
499
501
505
511
518
520
519
514
508
502
500
502
506
511
518
521
520
518
514
511
508
513
522
535
549
559
565
568
569
568
572
579
590
600
607
607
599
584
566
546
528
512
504
497
492
485
478
470
460
452
451
455
463
473
485
492
495
495
493
492
490
493
498
506
515
519
518
514
508
502
499
499
503
509
515
519
517
513
507
500
497
499
503
512
521
526
526
523
517
510
506
507
511
517
524
526
524
519
512
504
504
505
509
516
522
526
524
520
514
506
503
504
509
515
522
525
524
522
517
512
510
512
517
522
528
531
529
525
519
513
510
512
516
522
528
530
529
526
521
517
516
517
522
528
535
538
536
531
525
519
516
518
523
529
535
536
532
527
518
511
507
508
514
518
525
529
527
523
518
510
504
504
507
512
518
521
520
517
511
502
498
497
500
506
512
515
514
509
503
496
493
495
499
505
512
514
512
508
502
496
494
496
501
508
515
518
515
511
505
497
494
496
497
505
512
516
515
511
506
500
498
499
504
509
515
517
514
511
506
499
497
498
502
508
515
518
517
512
507
500
498
499
503
509
516
518
516
513
507
501
498
504
504
510
516
519
517
513
507
500
497
499
503
510
517
519
518
513
508
500
498
499
504
511
517
520
519
517
508
502
499
500
504
510
516
519
517
513
507
502
500
502
506
512
518
520
518
515
509
503
500
502
507
512
519
521
519
514
508
500
498
501
505
512
518
520
518
514
508
501
499
501
505
511
518
519
518
513
507
500
498
500
505
512
519
522
520
515
509
503
500
502
507
512
519
521
519
514
508
502
500
502
507
513
520
523
521
516
510
504
502
503
507
512
519
520
519
516
510
503
500
502
506
512
519
521
520
517
510
504
501
503
507
513
521
523
521
517
510
503
500
502
508
514
521
522
520
516
510
503
501
503
507
514
520
521
520
515
509
502
501
503
509
515
522
524
523
518
511
504
501
504
508
515
521
523
521
517
510
504
502
504
509
515
522
524
522
518
512
505
505
509
515
523
530
532
530
525
519
511
508
510
514
520
527
530
528
524
517
511
508
511
516
522
528
531
529
527
522
517
513
513
516
521
526
528
527
523
517
511
508
510
516
520
524
524
521
516
509
502
500
503
508
514
520
522
520
515
510
503
502
504
509
515
521
523
520
515
509
503
501
504
508
515
521
523
521
516
511
507
506
511
519
531
543
553
558
560
562
563
567
575
586
598
608
610
605
592
575
556
540
527
516
509
502
492
481
470
459
451
448
453
461
471
483
489
492
491
488
485
487
492
498
506
515
518
518
513
507
500
498
504
504
510
516
517
515
511
504
499
498
500
504
511
518
522
521
518
512
506
505
507
512
518
525
526
524
519
512
506
503
505
508
515
521
523
522
518
512
505
504
506
510
517
523
524
522
518
513
509
509
513
518
525
530
531
529
524
517
511
509
511
515
516
526
528
527
522
517
513
512
516
522
529
535
536
533
528
521
515
514
516
521
527
533
535
531
524
516
509
506
508
513
519
526
527
525
520
513
507
503
504
507
512
518
519
517
513
506
501
497
497
500
504
510
512
510
506
500
494
494
497
502
509
515
516
513
508
501
494
492
495
499
505
512
515
513
509
503
497
495
497
502
509
515
517
515
510
503
497
494
496
501
508
514
515
513
509
502
496
494
496
501
509
515
518
515
512
506
499
498
497
505
511
518
519
517
512
506
500
498
501
505
511
517
517
515
508
503
498
496
498
504
510
517
518
515
511
504
497
496
499
503
511
517
518
516
512
505
500
498
500
504
511
516
517
516
511
505
500
499
501
505
512
518
518
516
512
505
500
498
501
506
516
518
520
517
511
505
499
497
500
504
511
518
519
517
512
506
499
497
499
504
511
518
520
518
514
506
500
503
498
504
512
518
519
517
513
507
501
500
502
507
513
519
520
517
512
504
500
498
501
506
513
519
520
517
513
506
501
499
502
506
513
519
520
517
513
507
500
499
502
506
513
519
520
519
514
507
502
500
503
507
514
520
522
520
516
509
500
501
505
508
515
520
522
519
515
508
502
502
505
510
517
522
523
521
516
510
505
503
506
511
517
523
525
521
517
510
504
502
505
509
515
521
522
520
516
509
504
503
505
511
517
522
524
521
516
509
503
502
506
513
521
529
531
529
524
518
512
510
512
517
523
529
530
528
523
517
512
510
512
518
525
529
531
528
526
520
516
515
517
519
521
528
528
526
522
515
510
510
512
516
524
527
526
522
515
507
501
500
503
509
515
521
522
519
514
507
502
501
505
510
517
523
523
520
515
509
503
502
504
509
516
522
523
521
515
510
505
507
512
519
529
540
548
553
555
554
556
561
571
582
595
606
610
607
598
583
567
553
543
533
525
517
505
491
477
463
452
448
450
456
466
478
484
487
487
485
484
486
493
499
507
513
516
515
511
506
500
498
500
505
511
517
519
517
512
505
501
500
503
508
515
522
524
523
519
513
508
506
509
514
522
527
528
524
519
511
506
504
507
512
519
526
527
524
519
513
507
506
508
512
519
525
526
523
518
512
509
511
515
521
527
533
533
529
524
517
511
511
514
519
526
531
531
527
522
515
511
512
517
523
532
537
537
534
528
521
515
514
516
521
529
534
536
533
526
517
510
508
510
516
521
531
527
525
520
514
509
507
509
512
517
520
522
518
513
506
501
500
501
505
509
513
515
510
506
500
496
495
498
503
510
514
514
511
505
498
494
494
497
502
508
513
514
511
506
499
494
494
497
503
509
519
515
512
508
501
495
494
497
503
510
516
516
513
508
500
495
496
497
502
510
515
517
515
510
503
498
497
500
504
511
515
516
513
509
502
497
497
500
505
512
516
517
515
510
503
497
497
501
505
512
517
518
515
511
505
499
498
501
506
513
518
519
517
512
506
501
500
502
507
513
518
520
517
512
505
500
499
501
507
514
520
520
517
512
505
499
499
502
507
514
519
519
517
512
504
499
499
502
507
515
519
519
516
512
506
498
498
502
508
515
520
521
517
512
505
501
501
505
509
516
521
521
519
513
506
502
502
504
509
516
520
520
517
512
506
501
502
505
509
515
520
520
517
515
506
501
500
503
507
515
521
521
518
514
507
502
501
504
509
516
521
521
518
513
506
501
501
504
510
517
521
522
519
513
507
503
501
505
509
516
520
520
518
513
506
502
501
504
509
516
521
521
518
513
506
501
501
504
509
517
522
522
519
514
507
502
502
506
511
519
523
522
518
513
506
503
503
507
511
518
523
524
521
516
508
503
503
508
512
521
528
529
527
523
516
511
511
514
519
525
530
530
526
520
513
509
509
513
518
525
530
530
526
521
515
513
514
517
521
527
530
529
525
519
511
507
507
510
515
522
527
525
519
512
504
499
499
502
508
516
521
521
518
514
507
502
500
504
508
515
519
519
516
511
505
501
501
504
509
515
520
520
517
512
506
502
502
508
514
525
535
540
545
548
549
552
559
569
580
593
604
608
607
601
589
576
565
555
546
538
527
514
496
482
467
456
452
453
457
468
476
480
481
481
478
478
482
489
497
507
512
515
513
508
503
499
499
503
508
515
519
519
516
509
501
497
497
501
506
514
518
519
518
514
508
506
506
504
514
521
525
525
521
516
508
504
504
508
513
520
525
526
522
517
510
505
504
507
512
519
523
523
519
514
507
505
507
513
520
528
532
533
528
523
515
510
511
514
519
525
529
530
527
521
515
510
511
516
523
531
536
537
534
529
521
516
516
519
524
531
535
536
531
525
515
509
507
510
514
522
526
526
523
518
511
506
507
509
512
518
520
519
515
510
504
500
501
504
508
513
516
514
510
504
497
493
494
497
503
511
515
514
511
506
498
494
494
498
504
512
517
517
514
509
501
496
496
499
505
511
515
515
511
507
501
497
497
501
506
512
516
515
512
507
500
498
497
500
505
513
517
516
513
507
501
497
497
501
505
513
517
517
513
508
500
497
498
502
509
515
519
518
514
508
501
498
499
503
507
515
520
519
515
509
502
498
498
502
507
515
519
519
516
511
503
499
499
503
508
515
519
517
514
508
502
499
499
503
507
516
520
519
513
509
502
498
499
503
509
516
519
519
515
510
503
499
499
503
508
514
519
518
516
511
504
501
500
504
510
517
521
520
516
510
503
499
500
504
510
517
521
521
517
511
504
500
500
504
509
517
521
520
516
511
503
499
500
505
510
517
522
522
517
512
504
499
500
504
509
517
521
521
518
513
506
502
503
506
511
517
521
522
517
511
504
501
502
506
512
519
522
521
517
511
504
500
500
504
509
516
520
520
517
512
504
501
501
505
511
518
523
523
519
513
506
503
503
507
514
521
525
523
520
514
507
504
504
508
512
520
522
523
519
514
507
503
504
511
513
520
524
523
519
513
505
501
502
506
513
523
529
529
527
521
513
510
510
514
520
526
531
530
526
520
513
510
509
513
518
526
528
527
524
519
513
511
514
520
525
529
531
529
524
517
509
506
506
510
516
523
528
527
521
514
504
499
500
504
510
517
522
522
519
513
506
502
503
507
512
520
524
523
519
514
505
502
500
506
512
519
523
522
517
512
505
501
502
508
516
525
531
535
538
539
540
545
552
563
576
589
600
605
605
601
592
583
574
567
559
551
540
524
507
489
472
460
455
456
460
466
473
475
477
477
475
475
480
488
497
507
512
512
511
506
501
498
499
502
509
516
519
518
513
508
500
497
498
503
509
515
518
517
515
511
507
505
507
511
517
524
526
525
521
515
507
503
505
509
516
523
526
525
521
515
508
505
506
510
515
523
526
525
521
515
509
505
507
513
521
529
533
533
528
522
514
510
511
515
521
529
532
531
527
520
513
510
513
516
524
534
538
537
534
527
520
515
516
520
526
532
535
534
531
525
518
513
511
514
518
526
529
528
524
517
510
506
507
511
516
520
522
518
514
507
501
498
500
505
509
514
515
512
506
501
494
492
493
498
504
511
515
514
510
504
497
494
494
498
505
511
516
515
511
505
497
494
495
499
505
513
516
516
512
506
499
496
496
500
506
513
516
515
511
505
498
495
496
500
507
514
517
516
512
507
500
496
497
501
507
514
517
514
510
507
499
496
498
502
508
515
517
516
512
506
499
497
498
503
509
515
519
517
513
507
500
498
499
503
510
516
519
518
514
507
500
498
495
504
511
518
520
519
514
508
501
499
499
506
510
517
520
519
515
509
502
499
500
504
511
518
521
519
515
510
503
500
502
505
511
518
521
520
517
512
505
502
503
507
513
519
522
520
515
509
502
499
501
505
511
518
521
519
514
508
501
499
500
505
511
518
521
519
515
509
503
500
501
505
511
518
521
520
516
510
502
499
500
504
511
518
520
519
516
510
504
501
502
508
512
518
521
520
515
509
503
500
501
505
511
518
521
520
516
511
508
501
502
506
511
518
521
520
516
510
503
500
502
506
513
519
522
521
517
511
504
501
502
507
513
520
522
520
516
511
504
502
502
506
513
520
523
521
517
512
505
502
503
506
511
518
521
519
515
509
503
500
502
506
512
520
524
524
523
518
512
510
511
515
520
527
529
528
521
517
511
508
509
513
519
526
528
526
521
515
509
507
512
518
525
531
532
529
523
516
509
506
509
512
519
526
528
527
522
514
505
501
502
507
513
520
523
521
517
510
504
501
502
506
513
519
523
521
517
510
503
500
501
506
512
518
521
519
515
509
503
500
501
508
516
525
530
531
531
532
531
538
546
558
571
584
594
599
600
597
593
588
584
578
571
564
553
535
517
498
480
467
461
460
463
468
471
472
472
470
469
469
477
486
495
506
511
511
508
503
498
497
500
505
511
518
520
517
512
506
499
498
500
504
510
513
520
518
514
510
505
504
506
511
518
524
526
524
519
513
506
503
507
512
518
524
526
524
520
513
508
505
507
511
517
523
524
523
519
512
506
501
507
518
522
530
534
532
527
521
514
511
512
516
522
528
530
528
523
517
512
510
513
518
526
535
540
537
534
528
520
517
518
522
528
534
537
534
530
524
517
513
512
515
519
525
524
525
521
515
508
507
509
514
520
525
526
520
514
507
500
499
502
507
513
519
518
515
508
501
494
492
495
499
506
513
516
513
509
502
494
492
494
499
506
512
514
512
507
502
494
494
496
501
507
513
515
513
507
501
495
494
497
503
509
517
518
520
511
504
497
496
498
502
509
515
517
515
511
505
498
496
498
502
508
515
517
515
511
504
497
496
498
502
508
515
518
516
512
505
499
497
499
504
510
517
519
516
510
505
499
497
499
503
509
515
517
515
511
506
500
498
500
504
510
516
518
515
511
506
499
497
499
504
510
516
518
515
511
505
499
497
500
504
511
517
518
516
512
504
499
497
500
504
510
517
519
517
513
506
501
499
501
505
511
517
520
518
514
508
501
499
501
505
511
518
520
517
513
506
500
498
501
506
512
519
521
519
514
507
501
499
500
506
512
517
520
518
514
507
501
499
501
506
513
520
522
520
515
509
503
501
503
508
515
522
524
522
517
511
504
502
505
509
515
521
524
522
517
511
505
504
506
510
517
523
524
522
517
511
505
503
505
509
516
521
524
521
518
512
506
504
507
511
514
523
525
521
517
510
505
502
505
510
516
521
524
521
517
510
503
502
504
509
515
521
523
520
516
509
504
503
505
510
517
524
526
525
523
518
513
512
514
519
524
529
531
528
524
512
511
510
513
517
523
529
532
530
525
519
512
510
512
517
524
532
533
530
524
516
509
508
510
515
522
528
530
528
523
515
507
503
503
508
514
520
522
520
517
509
503
501
503
508
514
520
522
519
515
508
502
501
504
508
514
522
523
520
516
509
502
500
503
507
515
523
527
527
525
524
524
530
540
552
566
578
586
591
592
591
590
589
589
588
583
577
564
546
526
505
486
473
466
463
465
469
470
467
466
464
463
468
474
484
494
503
507
507
503
498
494
495
499
504
511
517
518
515
510
503
497
496
496
503
511
517
519
518
513
507
502
503
507
512
519
525
526
523
518
511
506
505
507
511
517
522
524
522
518
511
505
504
506
511
517
524
525
523
519
512
506
505
507
512
523
527
531
530
527
520
513
511
513
517
523
530
532
530
525
517
512
511
514
517
525
532
536
535
533
526
520
518
519
524
530
535
536
534
529
522
516
514
515
518
522
527
527
525
520
513
508
507
510
515
522
527
526
521
514
505
500
499
502
505
514
520
518
515
507
499
493
492
495
500
507
513
515
512
507
500
495
494
496
501
507
512
514
511
506
500
494
494
496
502
508
514
515
513
508
501
495
494
497
501
508
513
515
512
508
502
496
495
498
503
510
515
517
513
508
501
495
494
498
503
510
516
517
515
510
503
497
497
498
504
511
517
518
515
511
504
498
498
500
505
511
517
518
515
511
503
498
498
500
505
512
518
518
515
510
503
498
498
501
506
513
518
519
515
510
503
498
499
502
507
514
520
521
517
512
505
499
498
501
505
512
518
520
518
513
506
501
500
502
506
513
518
518
516
511
504
500
499
502
507
514
520
521
518
513
506
501
500
503
506
514
519
520
517
512
505
499
499
506
507
514
519
520
517
513
506
500
499
503
508
515
520
522
519
515
508
502
500
503
508
515
520
521
518
514
506
501
500
503
509
516
522
523
520
515
508
503
502
504
510
516
521
523
518
515
508
503
502
505
510
517
523
524
520
516
509
504
501
503
507
514
520
521
519
515
508
504
504
507
512
518
522
523
519
514
507
502
502
505
510
517
522
523
521
515
508
503
502
505
510
517
522
523
520
515
508
503
502
504
509
515
520
521
519
517
513
510
511
513
518
524
528
530
526
521
514
509
508
512
516
524
529
530
527
522
515
510
509
511
517
526
531
534
531
524
515
507
507
509
514
522
527
528
526
520
512
506
503
504
507
514
519
519
516
512
506
499
501
506
509
516
521
522
518
514
506
501
500
503
508
515
521
522
521
515
507
502
502
505
510
517
523
526
524
522
518
518
525
536
548
563
575
583
585
587
587
589
589
593
594
593
588
577
559
540
517
498
484
475
471
472
474
472
468
464
459
459
463
471
481
493
502
506
505
502
496
492
494
499
505
513
519
519
517
512
504
499
499
503
508
515
519
520
518
513
505
500
502
506
513
521
527
527
523
519
512
506
506
509
515
522
526
527
525
520
512
507
506
510
514
520
526
526
522
517
511
506
506
509
512
517
527
529
528
523
517
512
512
515
520
527
531
531
529
524
517
511
511
513
518
525
530
533
532
529
523
519
518
521
526
532
536
536
532
527
519
514
513
516
519
524
528
527
524
518
511
507
507
511
517
524
529
529
523
515
506
500
500
504
509
517
521
521
516
510
501
495
493
496
500
508
514
514
512
507
500
495
494
497
502
509
513
514
511
506
499
494
494
497
502
509
514
515
512
507
500
495
490
497
503
511
516
516
513
508
501
496
496
499
505
513
517
517
514
507
500
496
496
500
505
512
517
517
513
508
501
496
495
498
504
511
516
517
514
509
501
494
497
501
506
513
518
518
515
510
503
498
498
500
506
514
519
519
516
512
505
500
498
501
506
514
519
520
516
511
503
497
497
501
506
514
519
519
516
509
502
497
498
502
507
514
518
519
515
510
503
499
499
502
507
514
518
518
516
511
504
500
500
503
508
516
520
521
517
512
505
499
499
502
508
515
520
520
517
513
506
499
501
504
509
515
519
519
516
512
505
501
501
504
509
516
520
520
517
512
505
501
501
504
511
516
521
521
518
513
506
502
501
506
510
518
522
522
519
514
507
502
502
505
511
518
522
523
520
514
507
503
502
505
511
517
521
521
518
513
507
502
501
504
509
516
522
522
519
514
507
503
504
507
512
519
522
522
518
512
505
500
501
504
509
517
522
522
519
515
507
502
502
505
510
518
522
523
519
515
507
503
503
506
511
519
523
523
519
515
511
509
511
515
520
527
530
531
527
522
514
509
510
513
519
526
530
527
527
521
515
511
510
512
517
526
533
536
533
526
516
510
508
512
517
524
528
529
525
521
513
509
507
507
510
515
519
518
515
510
504
500
501
504
510
516
520
521
518
513
505
502
501
504
509
516
521
521
518
513
505
500
501
503
509
517
521
522
522
518
514
514
520
531
544
558
569
576
579
580
579
581
586
593
599
602
598
586
570
551
529
509
495
486
481
480
478
475
468
462
456
455
459
468
479
491
500
504
503
501
496
493
496
501
507
517
521
520
516
510
503
499
500
504
509
515
519
519
515
510
503
499
500
506
514
522
527
527
523
518
510
506
507
508
513
521
525
525
522
517
510
506
507
510
515
521
524
524
520
515
509
505
506
510
515
522
526
527
527
523
517
512
513
516
521
528
531
531
527
522
515
511
511
515
520
527
530
531
529
526
520
517
518
521
526
533
537
536
532
527
519
514
515
518
523
527
530
528
523
516
509
505
506
510
516
524
527
527
523
516
507
502
501
504
509
517
521
521
516
509
499
494
493
496
502
509
513
513
510
504
497
494
495
499
504
511
515
514
511
506
499
496
495
498
503
510
514
514
510
505
498
495
496
500
505
512
515
514
511
505
498
494
495
498
505
511
515
515
512
505
497
494
495
499
505
512
515
515
512
507
500
496
496
501
505
514
516
516
511
506
499
496
497
501
506
513
517
516
513
507
500
497
498
503
509
516
520
519
515
508
501
497
497
502
507
515
519
517
514
508
501
497
499
502
508
514
518
517
514
508
501
497
498
502
507
514
518
517
514
509
501
497
497
502
508
515
520
521
515
510
502
499
499
503
508
514
519
519
515
511
504
500
500
504
510
516
520
520
516
510
503
499
499
503
509
515
519
519
515
509
502
498
499
503
509
516
520
519
515
510
503
499
500
506
511
519
523
522
518
512
505
502
502
505
511
518
522
522
518
512
506
502
503
506
511
518
522
521
517
512
505
501
502
505
510
517
522
521
518
513
506
502
502
506
512
519
522
522
519
512
504
501
502
506
512
520
523
523
518
513
506
502
502
506
512
520
523
522
519
513
506
502
502
506
512
519
522
521
517
512
505
502
503
507
513
519
522
521
516
512
508
503
511
517
521
527
530
529
524
518
511
509
511
514
520
527
530
529
525
519
511
507
508
512
518
526
530
531
528
523
515
509
509
513
517
524
528
527
523
519
512
508
509
511
514
519
521
519
515
509
502
499
500
505
511
518
522
521
518
513
505
502
503
507
512
518
521
520
515
510
503
499
500
504
510
517
521
520
518
515
510
510
515
525
537
552
562
569
572
574
573
575
583
591
600
606
604
595
579
560
539
520
505
496
489
487
482
476
467
458
451
449
453
462
473
486
494
498
497
495
491
490
492
497
505
513
518
518
514
509
501
498
499
503
510
517
520
519
515
509
503
499
500
506
514
524
527
527
523
517
509
505
506
509
515
523
527
526
522
516
508
504
505
509
515
522
525
524
520
514
504
503
504
508
515
521
524
525
522
519
514
511
512
517
522
528
532
532
528
523
513
512
513
516
522
528
532
531
528
524
519
517
519
523
528
535
538
536
532
526
519
515
516
521
525
530
530
527
522
518
510
507
508
513
519
526
528
527
523
515
507
503
500
507
509
516
519
517
515
509
501
497
496
498
504
510
513
513
510
505
496
495
496
500
507
513
516
514
511
505
497
494
496
500
507
513
516
516
512
507
500
498
499
502
507
515
517
516
512
506
500
497
499
503
509
516
519
517
513
507
499
497
497
501
506
512
515
514
511
506
499
497
498
503
507
514
517
516
512
508
500
497
499
503
510
517
520
518
513
507
500
497
498
502
508
516
519
517
513
508
500
497
498
503
509
515
519
518
513
508
501
498
499
503
508
515
518
517
513
508
501
497
498
503
507
515
518
517
513
507
499
497
499
503
510
517
520
519
514
508
501
498
501
505
511
519
521
520
515
510
503
500
501
505
512
518
521
520
516
510
503
500
501
505
511
518
520
519
514
509
503
501
502
506
511
518
521
520
515
511
504
501
502
504
510
517
520
519
516
510
503
501
497
506
512
518
522
520
516
510
502
499
500
504
511
519
521
520
516
510
504
500
501
504
511
517
520
519
515
510
503
500
502
505
511
518
521
520
517
511
504
500
503
506
512
519
521
520
516
510
503
501
501
505
511
518
522
521
517
511
511
502
503
506
512
519
521
520
516
511
504
501
503
507
513
520
522
521
517
510
504
503
507
513
520
528
530
529
524
518
512
510
512
515
520
526
531
528
525
519
513
510
511
515
520
527
530
531
529
524
516
512
512
514
519
524
527
526
522
516
509
507
509
513
518
522
523
520
515
509
502
500
503
506
512
519
522
521
517
510
504
501
502
506
512
519
521
520
515
510
503
501
503
507
513
520
523
522
517
513
507
506
511
519
532
546
556
563
567
567
566
571
578
588
599
604
608
603
588
570
550
533
520
509
503
498
495
481
470
460
451
449
453
461
472
483
492
494
493
491
485
489
492
498
507
515
518
517
513
507
500
497
499
503
508
515
519
518
514
508
502
499
501
503
513
521
526
525
521
515
508
505
506
510
516
523
525
524
520
514
508
503
505
509
516
523
526
523
519
513
505
503
505
510
516
523
526
524
523
518
513
511
514
518
524
530
532
531
525
519
512
510
511
515
521
527
531
529
525
521
516
515
518
524
531
539
539
536
530
524
517
514
517
521
527
533
534
530
524
517
509
506
508
513
519
526
528
526
522
516
508
504
505
507
513
520
522
521
516
511
500
495
495
498
504
511
514
514
510
504
499
495
496
500
506
513
515
513
509
503
496
493
495
500
506
513
515
513
509
503
497
494
496
501
508
515
517
515
511
504
498
495
496
501
508
515
517
516
510
504
498
496
497
501
508
515
517
515
510
504
498
496
498
502
509
514
517
515
511
505
499
497
499
503
509
515
517
514
509
503
496
494
497
501
508
516
518
516
512
506
499
497
498
503
510
516
519
517
513
507
501
498
499
504
510
517
520
518
514
507
501
499
502
506
513
518
521
519
515
508
501
499
501
506
512
519
521
519
514
508
502
500
502
506
512
519
523
518
515
509
502
500
501
505
511
519
519
518
514
508
502
500
502
507
515
521
522
520
516
509
503
501
503
509
515
520
523
519
514
508
502
500
503
506
512
518
519
517
514
508
501
499
501
505
512
519
521
519
515
509
503
501
504
508
514
520
522
520
515
510
503
500
503
507
514
520
523
521
519
511
505
503
505
509
515
521
523
523
518
512
506
504
505
509
515
521
525
521
516
510
503
501
503
508
515
523
523
522
517
510
503
501
502
507
513
519
521
519
515
509
503
501
503
507
514
521
523
521
518
512
506
504
509
515
523
531
533
531
525
518
512
511
512
516
523
528
530
528
523
516
511
509
511
516
522
529
530
528
526
523
517
513
514
516
521
526
527
525
522
515
509
508
511
516
522
526
526
523
516
509
502
500
502
508
514
521
523
521
516
510
504
502
504
508
515
521
523
519
515
507
503
502
504
508
516
520
523
520
516
510
508
506
510
519
528
541
549
555
558
558
559
564
575
585
597
607
611
606
596
580
561
547
535
523
515
508
498
484
472
460
451
448
450
458
468
479
486
488
488
487
484
486
491
498
506
513
516
516
511
505
499
497
499
504
510
517
518
518
511
504
498
496
499
504
512
520
525
523
520
514
507
504
506
510
517
523
525
522
518
511
506
505
507
511
519
522
523
521
517
511
505
503
506
511
518
524
526
524
520
515
510
510
515
519
523
527
530
527
522
516
510
509
511
515
521
526
528
526
521
515
511
512
517
523
529
535
536
533
529
523
517
515
518
522
528
533
534
530
526
515
508
505
507
511
518
525
527
527
522
514
510
504
504
506
511
517
519
516
512
506
500
497
497
499
504
511
514
510
507
500
495
493
495
500
507
512
514
512
508
502
496
495
497
503
507
513
514
512
507
501
495
494
496
502
508
515
515
512
508
502
496
495
497
502
509
514
515
512
508
502
498
495
498
503
510
516
518
515
510
503
496
494
497
502
510
516
517
514
511
502
496
495
498
503
511
517
518
518
511
505
499
498
500
504
510
515
519
515
511
505
499
498
500
505
511
519
518
519
512
504
499
496
499
504
511
517
518
517
512
505
500
498
501
507
512
518
520
517
512
503
500
498
502
506
513
519
520
518
514
507
501
501
502
507
514
519
520
518
512
505
501
499
503
507
514
520
521
519
515
510
502
501
503
508
515
521
522
519
515
508
501
500
502
507
515
520
522
519
515
509
503
501
504
508
515
521
523
519
515
508
503
506
504
508
515
523
524
521
516
509
502
500
503
507
515
520
521
519
514
508
503
502
505
510
515
520
521
518
514
508
502
501
503
508
515
520
522
519
514
507
502
502
503
507
513
519
521
519
515
508
503
502
504
509
515
520
522
519
515
510
502
501
503
507
515
521
522
519
516
508
504
502
505
509
516
520
521
519
514
507
502
500
503
510
519
527
531
528
524
516
510
507
510
516
522
529
530
527
523
516
509
508
511
516
523
528
529
527
523
518
515
516
516
522
524
528
528
525
520
514
509
508
511
516
523
528
527
522
516
508
504
502
504
506
516
521
522
520
515
508
503
501
504
509
515
522
522
521
516
510
503
501
504
509
516
521
522
520
517
508
503
504
509
516
526
537
545
551
553
553
555
561
571
582
594
605
613
608
601
588
572
558
546
536
528
519
508
494
480
466
455
451
452
456
467
475
482
484
485
483
482
484
491
499
507
514
516
514
510
504
499
499
503
506
511
518
519
514
512
505
499
499
501
505
512
517
520
519
517
511
507
505
508
511
518
523
525
523
518
512
504
504
506
511
518
523
524
522
518
510
505
504
507
512
519
524
525
523
517
510
507
509
513
518
526
532
535
530
524
517
511
510
512
517
525
531
531
528
524
516
511
511
515
522
531
535
537
535
529
522
516
514
517
523
528
534
535
532
526
516
508
506
509
513
520
527
528
525
521
514
508
509
508
510
515
518
519
515
510
504
501
499
501
504
509
512
514
508
503
499
492
492
496
502
508
514
515
512
509
501
496
495
498
503
509
515
515
513
507
500
495
494
497
502
508
514
516
511
507
500
495
494
497
502
509
515
519
512
508
500
496
495
498
503
511
516
517
514
510
503
498
497
500
506
512
517
518
515
509
503
497
497
500
504
511
517
518
515
510
503
497
498
500
505
512
517
517
514
509
502
498
497
500
506
513
519
519
516
512
506
500
499
502
507
514
518
519
516
511
505
500
496
502
507
514
520
520
518
511
504
498
497
500
507
514
520
521
517
512
505
500
499
503
508
515
519
520
517
512
504
499
499
501
506
514
517
518
514
510
503
498
498
501
507
513
519
519
516
512
505
501
501
505
508
515
520
521
518
513
506
501
501
503
511
515
521
521
517
511
504
501
498
502
508
515
521
522
518
513
508
502
501
504
509
516
521
520
517
511
504
504
499
502
507
514
520
520
519
513
506
502
501
504
509
516
521
523
516
513
506
501
501
504
509
516
523
521
518
513
506
501
500
504
509
518
521
524
517
513
505
501
500
503
510
516
521
521
518
513
506
501
500
506
510
518
523
523
520
515
509
503
503
505
510
519
526
530
526
522
513
511
509
513
516
523
527
528
526
521
516
511
510
512
516
523
527
527
524
521
514
511
511
517
521
526
529
528
525
518
511
507
508
510
515
523
528
529
522
515
506
500
500
503
508
515
522
521
518
514
507
502
501
504
509
517
520
520
518
512
505
501
501
504
511
517
521
521
518
512
505
500
502
509
514
523
531
537
540
542
543
546
555
563
575
589
601
603
607
602
591
581
568
559
551
544
534
519
503
486
470
457
453
453
458
466
474
479
481
479
477
476
480
487
497
506
512
514
514
509
503
499
499
502
506
513
517
519
514
509
503
498
498
502
507
514
521
519
518
516
510
507
507
510
515
523
525
525
522
517
507
505
504
508
514
519
524
524
521
516
509
505
506
510
513
520
525
525
521
516
509
505
507
511
519
526
533
532
529
523
516
511
510
513
519
526
531
530
527
522
515
509
509
514
522
531
537
538
534
529
520
515
514
517
522
529
534
534
531
525
517
509
504
509
514
521
525
527
524
519
512
508
508
511
514
519
523
520
516
511
503
498
498
501
505
511
512
512
509
504
497
492
492
496
502
509
513
514
510
505
497
493
491
499
503
511
515
515
511
506
499
495
495
499
504
511
516
516
513
507
500
498
496
500
503
511
515
515
512
507
501
496
497
500
505
511
516
515
512
509
501
497
497
500
505
513
516
516
514
507
499
495
496
499
504
512
516
518
514
509
502
498
497
501
505
512
518
516
513
511
502
498
498
501
506
515
518
517
513
509
502
498
498
502
508
513
517
517
514
509
501
497
498
503
509
515
519
518
514
509
502
498
500
502
508
515
520
519
516
511
504
500
499
503
508
515
519
518
516
511
505
501
501
505
510
516
520
520
516
511
504
500
500
505
510
517
521
521
519
511
504
500
501
504
509
516
521
522
517
511
504
500
501
505
511
516
521
520
516
511
504
500
500
503
509
518
521
524
518
512
505
501
503
505
511
518
521
521
518
512
504
500
500
505
509
517
521
520
517
512
505
501
502
504
509
517
521
521
517
512
505
503
505
505
511
517
521
521
517
512
505
500
501
505
510
517
521
520
517
514
505
502
506
506
511
518
522
522
519
513
506
502
502
506
511
519
524
526
520
515
507
503
503
507
512
520
527
529
526
523
515
512
510
513
518
527
529
529
526
520
513
508
509
512
519
525
529
528
525
520
513
511
513
519
524
529
532
529
524
518
511
507
510
512
518
524
528
527
522
515
506
502
501
505
510
517
521
521
517
512
506
501
502
506
512
519
523
523
519
515
505
502
503
507
512
522
520
520
518
511
504
501
502
507
515
524
530
536
535
536
537
541
549
560
573
587
599
602
604
601
595
588
581
575
567
559
547
531
512
494
475
462
457
457
461
467
472
475
477
476
473
474
479
487
492
505
511
512
509
505
500
497
499
502
509
516
520
519
515
509
501
499
498
503
508
515
519
518
515
514
509
505
506
510
515
522
525
525
521
516
509
505
506
510
515
522
525
524
522
515
508
504
504
508
513
519
523
525
519
514
506
503
505
510
518
531
532
531
528
522
515
511
511
514
519
527
529
528
525
520
512
509
510
514
523
531
537
537
534
528
522
517
517
521
524
531
535
534
531
526
518
513
511
512
517
523
527
526
523
517
510
508
508
511
516
521
523
520
515
509
503
499
500
504
509
514
515
513
508
507
494
492
493
496
503
510
513
513
511
503
497
493
494
499
504
512
515
515
511
506
499
495
497
500
506
513
517
515
511
506
498
495
496
500
506
515
516
516
511
506
499
497
497
501
508
514
517
519
516
507
500
496
497
503
507
514
518
518
515
509
503
500
501
504
510
517
520
520
516
509
501
499
498
502
508
515
518
518
514
508
502
497
498
502
509
516
520
519
515
510
501
498
499
504
509
517
520
519
517
509
501
497
499
502
508
515
518
519
514
508
500
498
499
502
508
516
519
518
515
509
502
500
501
505
510
519
520
519
515
509
503
500
501
505
511
518
522
521
516
510
502
499
500
506
511
518
522
521
517
511
504
500
503
504
511
518
521
520
516
511
504
503
503
507
513
519
521
520
516
510
503
501
502
506
512
518
521
520
516
511
504
501
503
506
513
519
523
521
519
511
504
501
503
507
512
519
522
523
518
513
505
502
504
508
512
518
523
521
517
511
504
501
502
506
513
521
523
521
517
511
504
501
502
506
511
518
521
520
515
509
502
499
501
506
511
517
522
520
517
511
504
501
503
507
513
520
523
522
518
512
504
503
502
506
512
520
525
526
524
519
514
510
511
514
520
527
530
529
525
519
512
509
510
514
519
525
528
527
523
516
510
507
510
517
524
530
532
527
522
515
508
506
507
511
517
524
528
525
526
515
506
501
500
504
510
519
520
520
516
510
503
501
501
506
511
518
521
519
515
509
503
501
500
506
511
515
520
519
516
510
503
500
503
506
513
522
528
529
529
529
529
535
542
554
567
579
590
595
598
596
594
588
585
580
575
568
558
541
523
504
484
471
463
461
463
468
471
471
469
468
466
469
474
483
493
503
509
511
506
501
497
497
498
502
509
516
519
517
513
507
500
497
499
503
509
517
518
517
513
509
504
503
506
511
518
522
520
523
519
514
506
504
506
511
516
523
524
523
519
512
505
503
507
510
516
523
526
524
520
517
507
505
506
511
519
528
532
532
527
522
515
512
513
518
523
530
532
531
526
522
513
510
512
516
523
531
535
535
533
525
518
515
517
522
528
535
537
535
530
524
517
513
514
515
519
525
527
524
520
515
509
507
508
512
519
526
525
521
515
507
500
497
500
504
511
517
517
514
508
501
494
491
493
499
504
511
514
513
509
503
496
493
495
498
504
511
515
513
510
503
496
495
496
500
506
512
515
514
509
503
497
494
496
499
505
511
514
512
509
503
497
495
497
501
508
514
517
514
511
504
501
496
497
501
509
515
517
517
511
504
498
496
498
503
509
516
519
516
512
505
499
496
496
503
511
518
519
517
512
506
499
497
498
503
511
515
519
517
513
507
502
500
501
507
511
517
519
517
513
507
500
498
501
503
510
517
519
517
513
507
501
501
501
505
512
518
520
518
513
507
502
499
501
505
512
518
519
517
512
507
499
497
499
504
510
516
517
516
511
507
500
498
500
504
511
518
520
519
515
509
503
500
502
506
513
519
525
523
515
509
502
500
502
506
512
520
520
518
515
509
502
500
502
507
513
518
521
517
515
508
503
501
502
507
513
519
521
519
515
510
504
502
505
508
514
520
522
519
516
511
503
503
502
507
513
520
522
520
516
510
506
502
504
508
514
520
522
520
516
510
503
501
503
509
515
521
523
521
517
510
504
502
504
510
517
523
525
523
518
511
504
502
504
508
515
521
527
519
516
509
503
500
502
507
513
521
522
523
521
517
512
511
513
517
524
528
528
525
521
514
508
507
509
515
520
526
528
526
521
515
509
507
511
515
523
532
532
529
523
515
508
507
508
513
520
526
528
525
521
515
510
504
504
506
511
516
519
517
514
509
502
500
502
506
513
518
520
518
516
507
500
498
501
506
513
520
522
519
514
511
502
501
504
508
514
522
527
525
523
521
521
525
535
547
561
575
584
589
591
590
589
590
592
591
589
582
571
554
535
514
493
480
471
467
468
470
470
468
466
464
462
465
474
481
493
502
508
508
505
499
495
495
499
504
511
518
519
517
512
504
499
497
498
502
510
516
519
517
513
507
500
500
504
510
517
524
526
524
520
512
506
504
505
510
519
524
524
524
519
512
507
505
508
512
519
525
526
523
518
511
505
504
506
511
519
527
530
528
523
518
513
512
514
518
525
529
530
527
523
516
510
509
511
518
522
530
534
533
530
524
519
517
519
523
529
535
537
534
529
523
517
516
516
517
526
526
527
524
521
515
510
507
509
513
520
525
525
520
514
507
500
498
501
503
512
519
519
516
509
499
492
491
494
498
505
511
513
511
506
499
494
492
495
500
507
513
517
513
508
502
496
495
497
502
509
516
516
513
509
502
497
496
498
503
510
515
516
514
510
504
498
496
499
503
509
515
516
513
509
503
496
495
500
504
510
516
517
517
510
503
498
496
499
504
511
517
518
515
510
503
499
496
499
504
511
517
519
516
512
507
500
498
501
505
511
516
518
515
511
504
499
497
500
504
512
518
520
519
513
506
500
499
503
506
513
519
521
517
512
505
500
500
502
506
512
519
519
517
513
507
500
499
501
506
513
518
520
517
513
506
500
499
501
507
513
519
521
518
514
507
501
500
503
508
516
521
522
520
515
508
502
502
504
508
515
521
521
519
514
508
503
500
503
509
516
521
522
519
515
509
502
501
503
508
514
520
521
519
516
508
503
502
505
510
516
522
523
521
515
508
503
501
504
509
516
521
525
522
516
509
503
502
504
509
516
523
522
520
515
509
504
502
504
508
517
521
523
520
515
509
504
503
506
511
517
523
524
521
515
509
503
502
505
509
516
521
522
520
515
509
503
503
505
510
517
522
523
520
516
509
503
502
504
509
516
521
522
520
518
514
510
510
513
517
523
529
529
527
523
514
509
509
511
516
523
528
529
527
521
515
508
507
510
515
523
532
535
531
525
517
511
509
511
516
520
527
528
527
521
514
508
505
506
509
516
519
521
518
513
506
500
500
503
510
515
520
521
518
513
505
498
498
503
507
519
521
523
520
515
508
502
503
505
509
516
522
524
523
520
512
517
520
530
542
556
570
578
582
584
583
584
587
591
594
596
592
581
564
547
524
503
489
480
474
473
473
471
467
462
456
454
459
467
477
489
499
500
504
502
497
492
493
497
504
512
519
518
515
510
502
498
497
500
504
511
516
517
514
509
502
497
499
505
513
520
526
526
523
518
511
506
505
509
512
520
525
526
523
518
511
506
507
508
512
519
523
524
521
516
510
507
504
507
511
518
525
527
527
524
519
513
512
514
518
523
527
528
526
523
514
509
509
512
516
523
528
530
531
526
520
516
515
518
523
529
535
535
532
528
526
516
515
517
520
526
531
527
524
519
511
507
507
511
516
526
529
529
525
518
508
500
499
501
507
513
519
519
515
508
498
492
491
495
499
507
513
515
512
507
500
495
495
497
502
509
513
514
511
505
498
495
494
495
503
510
514
515
512
507
501
494
493
496
501
509
514
515
511
508
499
495
494
495
502
509
514
515
514
509
502
497
497
500
505
511
517
518
513
508
501
496
496
499
504
511
516
517
514
509
502
496
496
499
505
513
517
517
514
508
501
497
497
501
507
513
518
519
515
511
504
499
499
503
508
515
519
520
516
511
504
499
499
500
505
512
517
518
516
511
504
500
499
502
507
513
519
518
515
510
503
499
499
503
508
515
520
520
517
511
504
499
500
504
509
516
520
521
519
513
506
501
501
504
509
516
521
523
517
512
505
500
500
505
511
518
523
522
519
512
505
501
500
505
510
519
522
522
519
513
506
501
501
504
511
517
521
521
518
512
509
501
500
505
510
517
523
522
519
514
507
502
503
505
510
517
522
523
519
514
507
503
503
505
510
517
522
522
519
513
507
502
502
506
511
517
522
523
519
516
508
503
502
505
510
518
522
522
519
514
507
502
502
504
510
517
521
524
519
513
507
502
503
506
511
518
524
523
520
518
508
503
502
505
510
519
522
522
518
514
509
507
510
514
523
520
530
529
525
520
513
509
508
513
517
524
528
528
524
519
512
508
510
511
516
524
531
532
530
525
517
511
509
512
516
523
528
528
524
519
513
508
507
508
510
515
518
518
516
511
503
499
499
503
507
515
519
519
517
511
504
500
500
503
509
516
520
519
515
509
504
499
500
503
509
517
521
520
519
515
511
510
515
525
537
554
564
572
576
577
576
576
584
594
599
602
601
590
575
556
534
514
500
492
486
483
479
473
466
460
453
451
456
464
474
486
494
499
499
498
494
493
494
499
507
515
519
519
515
509
503
498
498
501
507
514
518
518
514
511
502
498
498
503
511
518
523
524
522
516
509
505
504
509
513
521
525
527
521
516
509
505
505
508
513
520
525
524
520
516
509
505
505
508
513
522
524
526
525
522
517
514
515
517
523
527
531
529
525
520
513
510
509
514
518
524
529
529
527
524
519
516
519
521
526
533
537
536
532
527
520
517
516
519
523
529
530
528
524
518
511
507
509
512
517
524
527
526
523
517
507
501
499
504
510
517
522
521
519
511
501
495
493
496
502
509
514
516
511
507
499
495
495
498
503
511
515
514
511
505
498
494
495
498
504
514
516
515
511
506
499
495
494
502
506
512
516
516
512
507
500
496
497
502
506
513
517
517
513
508
500
496
498
500
505
513
518
517
514
509
502
499
499
503
508
514
518
518
514
510
503
501
500
504
509
515
518
517
513
509
501
497
499
503
509
515
519
518
515
508
501
498
503
503
508
517
520
519
515
510
503
499
500
503
509
516
519
518
514
508
501
496
499
503
507
515
517
516
513
508
502
498
500
504
511
518
521
520
516
511
503
500
501
506
510
516
520
519
516
511
503
500
503
505
510
517
522
521
517
510
503
498
500
504
510
517
520
520
517
512
505
500
502
505
510
517
520
520
516
511
504
501
502
505
510
517
520
520
518
511
504
501
503
506
512
519
523
523
519
513
505
501
502
506
511
518
523
522
519
513
505
502
502
507
513
519
523
522
518
513
505
501
501
505
511
518
522
522
518
513
505
502
503
509
511
520
523
523
519
513
507
503
503
507
512
519
523
523
520
514
507
503
503
506
512
518
522
521
518
512
507
502
504
508
514
520
523
522
518
514
507
505
508
513
519
527
530
531
526
519
512
508
510
514
519
527
530
530
525
519
512
508
511
514
519
528
533
532
530
524
517
512
511
514
519
527
530
529
526
520
513
510
511
514
519
525
524
522
518
512
504
501
503
507
512
519
522
521
516
511
503
500
503
506
512
519
523
521
519
511
505
502
501
505
509
517
520
519
516
512
509
507
513
522
535
550
560
566
570
572
570
573
580
590
599
607
607
600
586
567
546
528
514
503
495
491
485
478
468
460
452
449
452
460
470
482
490
493
494
492
490
490
493
498
506
516
519
519
515
509
501
497
498
502
511
516
518
517
513
507
501
497
498
503
511
520
525
525
522
516
508
505
507
508
514
520
524
523
519
514
508
505
506
510
516
523
525
524
520
513
508
504
505
509
515
522
525
524
520
519
512
509
511
516
522
528
531
529
526
519
513
510
511
515
520
527
531
531
526
523
518
516
519
522
527
533
537
534
530
525
518
515
516
520
526
534
534
530
524
514
509
505
507
512
518
525
528
527
522
515
506
501
501
503
509
516
519
518
514
508
501
495
495
499
503
509
512
511
507
503
496
495
495
499
505
512
514
513
509
503
498
494
495
500
506
512
514
512
508
503
496
494
496
501
507
513
516
514
511
504
497
495
497
500
506
513
515
515
510
504
498
496
498
503
509
515
519
516
512
506
499
497
498
503
510
517
518
516
513
506
499
496
497
501
509
515
518
517
512
506
499
496
498
502
508
516
517
516
512
506
500
497
499
503
509
515
518
517
513
506
500
498
499
503
509
515
517
516
512
507
502
498
500
504
510
516
519
517
513
509
499
497
498
502
508
515
518
517
515
508
503
500
502
504
511
516
519
519
514
509
502
500
502
506
511
518
522
519
515
508
506
499
501
505
511
519
519
518
513
506
500
498
500
505
511
518
520
519
514
508
501
499
501
507
512
518
520
519
514
509
502
499
502
505
511
518
521
519
512
510
504
503
502
506
512
518
520
519
515
510
505
501
503
507
512
519
522
521
516
511
502
499
501
505
512
518
521
522
517
510
504
500
501
506
512
519
521
521
515
509
502
500
502
507
513
521
524
521
517
511
504
501
503
507
512
520
521
520
516
510
504
502
503
507
515
519
520
519
515
509
503
502
506
515
521
528
530
528
523
517
510
507
511
514
520
528
530
528
524
517
511
509
509
515
520
527
529
528
526
521
517
512
512
515
520
526
528
527
522
517
510
508
511
515
520
525
525
520
517
509
503
501
503
507
513
519
521
521
515
510
503
500
502
506
516
520
523
520
516
510
503
501
502
507
513
520
521
520
515
510
506
505
510
518
531
542
553
559
564
564
564
567
575
587
597
607
610
605
594
577
559
542
531
518
510
503
494
483
471
460
450
447
451
459
470
483
493
492
492
490
487
488
493
499
507
514
518
517
513
508
500
498
499
504
507
516
518
516
515
507
501
499
500
504
511
520
524
524
519
513
507
504
506
510
516
523
527
524
520
514
507
506
506
510
516
523
526
524
520
513
506
504
505
509
518
524
526
525
522
514
511
510
512
518
523
529
531
529
525
518
511
509
511
515
520
528
530
529
525
520
515
516
518
523
529
535
535
534
529
523
519
516
518
522
529
535
536
531
525
519
509
506
508
512
518
525
527
525
524
515
509
505
505
508
513
518
521
519
516
510
503
499
499
501
506
511
516
511
507
501
496
494
496
501
507
515
516
514
509
502
496
495
497
502
509
514
515
512
508
501
495
493
495
501
506
513
516
514
510
504
498
497
499
504
509
514
516
514
509
503
500
498
498
503
509
515
516
514
509
503
499
495
498
502
509
516
518
516
511
506
498
496
498
503
510
516
518
517
514
506
501
499
501
506
511
517
519
518
512
506
500
500
502
505
512
518
520
518
513
507
501
499
502
506
513
519
521
518
514
505
500
496
502
506
514
518
520
517
512
506
501
499
502
507
512
518
520
518
513
507
501
501
503
507
513
519
519
517
513
507
501
500
502
507
514
520
521
520
515
508
503
500
501
511
514
518
521
518
514
509
502
500
502
507
513
518
520
518
515
508
503
500
502
506
512
518
520
518
513
506
499
498
501
508
512
519
522
519
515
509
503
501
504
508
515
521
521
518
514
508
501
497
502
507
515
520
522
519
514
508
501
500
502
508
514
521
522
521
519
509
503
503
505
509
515
521
523
521
516
509
503
503
503
507
514
519
521
518
514
507
503
500
503
508
515
520
521
519
514
509
502
501
504
509
515
520
522
520
519
509
502
502
504
511
519
527
528
527
522
515
508
507
509
514
521
527
529
526
522
516
510
509
510
514
520
527
528
526
523
519
515
513
514
516
522
525
526
524
521
515
511
510
511
516
521
525
524
519
513
504
498
497
502
506
512
519
520
518
513
505
500
499
502
506
514
519
520
518
513
506
501
498
501
506
513
519
521
519
515
510
503
504
508
516
526
536
546
550
555
555
556
562
572
583
595
606
610
608
598
584
567
553
541
530
522
512
503
488
476
461
451
447
450
455
465
477
482
485
485
483
481
483
489
496
506
512
514
514
510
503
497
496
498
503
509
515
515
513
509
502
497
495
500
502
509
516
520
517
518
512
506
506
507
512
518
524
525
523
517
511
507
504
507
511
518
524
524
522
518
513
505
505
508
512
518
523
524
521
519
512
508
508
513
518
526
531
532
530
525
519
514
513
516
518
526
531
533
529
525
518
513
514
519
525
532
540
539
536
530
523
517
515
517
522
530
531
535
532
526
517
511
508
510
515
521
527
528
525
520
513
508
506
509
511
515
520
520
518
514
509
504
503
502
504
508
512
513
509
505
497
494
492
495
500
508
513
516
513
508
502
495
493
495
500
508
514
515
512
509
501
496
496
499
503
510
516
516
515
509
502
497
495
498
503
510
516
519
515
510
503
498
496
499
503
510
517
516
513
510
502
498
497
500
505
513
517
519
518
511
503
498
497
499
505
510
516
517
514
510
504
498
496
501
505
511
516
517
515
510
504
499
499
501
505
512
518
519
517
512
505
502
499
502
506
513
518
518
515
511
506
499
498
501
506
513
518
520
517
513
505
500
500
502
507
513
519
520
518
512
506
501
500
503
509
515
520
523
518
513
506
501
500
504
508
515
522
521
518
514
507
502
502
504
509
519
521
522
519
515
508
503
502
504
510
516
521
521
518
513
506
501
502
505
509
516
520
522
520
515
508
504
505
506
510
517
522
523
520
516
509
505
504
506
511
518
523
523
519
515
510
503
503
506
511
518
523
525
520
515
508
503
503
506
511
518
523
523
521
516
508
503
504
507
512
519
524
526
521
516
509
504
503
505
510
517
525
524
519
517
510
504
504
507
512
521
524
524
520
514
507
502
503
505
510
517
523
523
520
515
509
504
504
509
512
521
529
531
528
524
517
511
511
513
517
524
529
530
527
521
514
511
509
511
516
522
527
528
525
520
516
511
512
515
519
524
527
527
524
520
513
508
508
511
516
522
527
526
523
516
506
501
500
502
508
515
520
520
517
512
506
502
501
503
509
515
521
520
518
512
506
501
501
504
509
519
522
522
519
513
506
501
502
507
516
525
535
541
545
547
547
550
557
569
579
593
604
609
608
602
589
575
567
554
545
538
528
516
499
483
468
459
453
453
458
467
475
480
482
482
479
479
482
489
496
506
511
513
512
511
502
498
500
502
507
514
518
518
517
511
504
498
498
501
506
512
517
520
519
516
511
507
507
510
515
521
527
525
522
517
509
504
504
510
512
521
524
525
521
516
508
503
503
504
513
519
524
524
521
517
510
507
509
515
521
529
533
533
529
524
516
511
511
513
518
525
529
530
528
523
517
511
511
516
523
531
536
537
534
529
522
516
516
519
523
531
535
536
529
527
517
510
508
511
515
522
526
527
525
519
512
507
507
509
512
517
520
521
516
511
505
500
500
503
506
511
515
513
509
503
497
492
492
496
502
511
514
514
511
506
498
493
493
496
503
511
513
514
511
505
498
494
493
499
501
509
513
513
510
505
498
494
495
498
504
510
515
516
512
508
500
495
495
499
504
512
516
517
513
508
500
496
495
499
505
512
517
517
513
510
501
497
496
500
505
512
517
517
517
509
502
497
496
499
505
512
517
519
515
509
503
498
498
502
508
515
520
518
514
509
502
498
498
501
506
514
517
518
514
510
503
499
497
504
511
518
520
519
515
510
502
498
499
504
509
517
521
521
517
512
505
497
506
504
508
516
520
520
517
512
505
502
500
504
509
517
521
521
517
512
507
501
501
504
508
517
521
521
518
515
506
502
502
505
509
516
521
521
519
513
505
502
502
506
511
519
522
523
517
512
505
501
501
505
510
518
525
523
519
514
506
502
502
509
512
521
523
523
520
514
508
504
504
507
514
520
524
525
520
512
507
504
504
508
512
519
523
523
520
514
507
502
503
506
511
518
522
523
519
514
507
504
503
507
511
518
522
521
517
513
507
501
501
505
511
518
522
523
519
515
505
502
503
506
511
518
523
523
521
513
506
501
502
506
512
521
528
531
527
523
516
511
510
513
517
524
531
529
526
521
514
509
508
511
516
525
527
528
524
519
511
508
510
515
521
525
526
520
519
515
508
505
506
511
515
522
526
525
519
513
504
499
501
502
508
516
520
520
517
512
504
500
500
504
510
517
520
519
516
511
506
502
503
506
510
514
524
520
516
511
504
501
502
507
515
525
532
536
541
540
540
544
551
561
573
587
598
606
605
602
593
584
575
567
559
552
540
525
508
491
472
460
455
455
459
467
472
473
476
477
473
473
478
485
495
505
511
512
510
506
500
497
498
502
506
513
518
518
514
508
501
497
499
502
508
515
519
519
517
513
509
507
507
510
516
522
526
526
522
517
511
506
506
510
516
522
526
525
521
517
508
504
504
508
514
521
524
524
522
515
511
503
509
511
518
527
531
533
528
523
515
511
512
515
519
526
531
530
526
521
513
509
510
515
522
533
535
539
533
528
521
516
516
519
526
532
536
535
531
527
518
512
510
511
519
523
527
527
523
518
511
508
511
511
515
521
522
520
517
508
501
499
499
502
507
512
514
513
509
504
498
493
493
498
504
511
514
514
509
506
497
493
493
496
503
511
515
514
511
506
499
495
494
498
504
511
515
516
511
505
499
495
496
500
506
512
518
516
512
504
501
497
497
501
506
515
517
515
512
507
500
497
497
501
508
514
518
519
515
510
503
496
499
505
508
515
518
518
514
508
501
497
499
502
506
514
518
517
514
508
500
499
498
502
508
515
518
517
513
509
503
499
500
504
509
516
520
519
515
511
503
498
498
499
507
514
519
519
517
510
504
500
500
504
509
517
520
522
516
511
503
499
500
504
509
517
523
519
517
511
504
500
500
504
509
519
520
519
516
510
504
500
501
505
511
518
522
522
519
513
506
502
502
507
511
518
522
521
517
511
505
502
504
507
512
519
524
522
517
512
505
503
502
506
512
519
523
522
519
513
506
502
503
507
512
519
523
523
521
516
507
502
503
506
511
518
522
522
519
513
507
503
504
508
514
520
523
524
519
513
507
504
505
509
514
521
526
523
520
514
507
503
504
508
513
520
522
521
518
512
506
503
504
508
515
521
524
523
520
514
507
504
504
510
514
521
524
523
519
516
508
503
505
507
513
521
526
527
526
522
515
514
513
516
521
528
530
529
526
520
515
509
510
513
519
526
530
529
525
521
513
510
512
517
524
530
531
528
525
517
510
508
509
513
518
526
528
527
522
514
505
500
499
503
509
516
522
521
516
510
503
499
500
504
510
516
521
520
516
510
504
501
503
506
514
519
522
521
517
511
504
500
501
507
513
522
527
529
530
531
532
535
549
555
568
582
592
597
599
597
592
589
582
576
569
563
552
536
517
498
479
465
458
457
460
465
468
469
470
471
467
470
475
484
493
504
510
512
510
505
499
497
499
503
508
518
516
517
511
505
499
496
497
501
507
515
520
517
513
508
504
503
505
511
516
525
526
528
519
513
506
503
504
508
515
521
524
523
519
513
506
503
504
511
514
521
524
524
519
514
507
507
506
510
518
527
531
530
527
521
514
511
512
516
522
528
531
529
525
519
514
508
510
513
522
531
536
536
532
527
520
517
518
522
527
534
538
537
535
527
519
514
512
514
518
525
528
527
524
519
512
509
510
514
519
524
527
522
517
510
503
500
503
510
513
519
519
515
508
502
495
492
493
497
506
512
516
515
512
504
497
493
494
499
504
511
515
514
510
505
498
496
498
500
506
513
517
515
512
506
499
498
497
501
510
515
517
520
512
507
501
496
498
502
507
513
517
515
512
507
499
495
496
496
505
513
516
515
511
506
499
496
497
501
506
513
516
517
511
505
499
496
498
501
506
514
519
516
512
506
499
496
497
500
507
515
517
516
512
506
499
496
498
503
511
515
518
517
513
507
500
498
500
505
508
514
517
515
511
506
500
498
502
505
511
517
519
519
515
509
505
500
499
503
509
516
519
518
514
509
504
500
501
504
511
516
519
521
514
511
503
496
501
505
511
517
520
518
515
508
501
498
500
504
510
517
520
519
514
509
506
498
500
504
511
519
524
523
517
511
504
500
502
505
511
519
521
520
516
510
504
500
501
506
514
519
521
520
517
510
503
500
502
508
513
519
522
521
516
510
503
499
503
505
512
519
522
521
516
511
504
503
503
507
513
520
523
521
516
511
505
502
504
507
516
519
522
520
516
511
504
502
503
507
512
519
521
520
519
511
505
502
504
506
514
521
523
523
517
510
504
501
502
506
512
518
523
523
520
516
511
509
510
515
521
530
528
528
524
518
512
509
510
515
522
527
529
528
523
517
510
508
510
519
525
533
534
531
524
516
508
506
509
513
519
526
529
528
524
517
508
503
502
505
511
518
521
519
515
510
501
501
503
506
513
519
522
520
517
511
504
501
502
507
513
520
523
521
519
512
505
501
505
509
515
523
528
530
527
525
525
529
538
550
563
577
591
593
595
593
591
589
589
587
583
579
566
550
531
510
491
475
469
466
468
470
471
470
468
467
465
469
474
485
493
503
509
510
508
503
498
498
502
505
511
517
520
518
514
508
503
499
497
504
510
518
520
519
515
509
507
506
508
514
520
526
528
526
522
517
508
505
507
512
518
524
527
524
523
516
509
506
507
511
517
523
526
525
519
513
506
503
505
510
518
527
533
530
527
521
514
511
512
516
523
531
532
529
525
519
512
510
512
517
525
531
536
536
533
527
520
517
518
523
527
534
536
535
531
524
518
514
516
517
521
527
528
527
523
517
511
511
512
516
522
528
528
523
517
509
500
498
500
506
512
519
519
516
510
503
495
492
495
499
507
514
517
515
511
503
496
494
496
501
510
515
516
518
511
505
499
496
497
502
507
513
516
512
507
502
495
493
495
500
506
514
514
514
509
503
497
494
497
501
509
515
517
515
510
503
497
496
498
504
509
515
518
517
512
505
500
498
501
503
509
516
518
516
512
505
499
498
498
502
508
515
518
516
513
507
503
499
500
504
509
516
518
516
512
507
500
497
499
504
510
516
520
518
516
507
501
498
499
504
511
517
520
519
513
506
500
498
499
504
510
517
519
517
513
506
502
497
499
504
510
518
520
518
514
509
502
500
502
506
515
519
522
520
515
509
503
500
502
507
512
519
521
520
515
508
502
500
503
506
513
519
521
519
515
509
503
502
502
505
511
518
520
518
514
507
502
499
500
505
511
518
520
518
514
509
501
499
501
505
512
519
522
520
518
510
504
501
504
509
515
521
523
523
516
510
503
501
503
507
514
520
523
520
517
510
504
503
505
509
516
524
524
522
517
511
504
502
504
508
515
518
523
521
517
510
504
501
503
506
514
520
523
519
515
509
502
500
505
507
513
519
521
519
515
509
503
503
504
508
515
522
524
522
519
515
511
509
512
517
523
528
529
527
522
517
511
509
511
516
522
528
529
526
523
515
509
507
509
515
523
531
535
533
525
518
510
507
509
513
519
526
530
526
523
516
509
504
504
506
511
519
519
518
514
508
503
501
502
507
515
523
523
520
516
509
503
500
501
507
512
519
521
520
515
509
503
502
506
508
515
523
527
526
524
521
520
526
534
546
560
574
583
587
588
588
589
588
592
593
592
588
578
562
542
526
500
486
476
470
469
471
469
467
464
460
459
462
468
477
487
498
503
506
503
499
493
494
497
503
510
517
520
517
512
506
499
497
499
504
510
519
518
516
512
506
501
501
506
512
521
526
527
525
520
514
507
506
508
514
519
524
526
524
520
514
508
507
511
512
518
525
527
524
519
513
506
507
506
511
518
525
529
528
525
520
515
512
514
518
524
530
531
529
523
519
511
510
512
517
523
530
533
533
533
526
520
519
519
523
528
533
539
535
529
521
518
517
518
520
523
527
528
523
520
514
509
508
510
515
521
527
528
524
518
510
503
498
503
507
515
520
522
520
511
503
495
492
494
501
507
513
514
511
508
500
495
494
495
501
508
514
515
513
508
501
495
495
495
499
506
512
514
511
507
500
493
493
496
501
508
514
515
513
509
505
497
495
497
501
508
515
516
514
511
503
497
496
501
502
509
515
515
515
508
502
496
495
498
503
510
516
519
516
511
504
499
497
499
503
505
517
518
515
512
505
499
498
500
504
511
517
518
517
513
505
500
497
500
506
510
517
518
516
512
505
499
498
501
505
512
517
518
516
512
507
501
500
501
505
512
518
519
517
512
506
502
503
503
507
514
520
521
519
514
509
500
498
501
506
513
519
520
518
516
507
502
500
502
507
514
520
521
521
514
506
500
498
500
505
512
519
523
519
514
507
501
499
503
507
513
521
521
519
514
507
501
498
501
506
515
518
519
517
513
507
500
500
503
511
514
519
520
518
513
507
502
501
505
507
514
519
522
520
516
511
504
505
504
510
517
523
524
521
516
510
506
502
506
510
517
523
525
522
518
511
505
504
506
511
517
523
524
523
519
511
505
505
508
511
518
523
524
522
517
511
505
503
506
511
517
523
525
521
515
511
504
503
506
511
518
524
523
520
516
512
509
510
514
519
527
528
531
528
524
517
511
510
512
519
524
529
530
527
522
516
510
509
514
517
525
532
536
534
526
519
511
510
510
515
521
527
528
526
522
515
511
507
507
510
515
521
521
519
514
510
502
501
502
508
515
522
523
520
517
508
502
501
503
508
514
520
521
520
513
506
501
501
504
509
516
522
526
523
521
517
515
519
527
539
553
568
574
579
581
581
582
587
591
595
601
598
588
574
555
534
513
498
487
482
478
477
474
469
463
457
454
458
466
476
487
497
502
503
502
497
493
494
497
503
512
518
520
516
511
504
500
497
500
505
512
517
517
514
509
506
497
497
502
509
518
525
527
524
521
512
506
504
506
511
518
524
525
524
518
511
505
504
508
512
518
523
526
522
519
512
506
505
506
509
517
526
523
526
524
518
514
512
514
519
527
531
531
527
523
515
511
510
512
518
522
527
529
529
526
522
517
516
521
524
531
537
536
534
529
522
516
517
518
522
527
533
529
525
520
512
510
508
511
516
524
529
529
525
517
510
501
499
502
507
514
519
521
517
511
501
494
492
496
499
511
513
515
512
507
500
495
494
497
502
509
515
516
512
508
501
495
494
497
501
508
512
516
513
508
502
496
495
497
502
510
515
515
512
508
500
496
496
499
504
511
516
517
514
509
502
497
497
500
503
510
515
516
514
509
503
498
498
500
505
511
517
518
515
511
504
500
499
502
506
513
517
518
514
510
504
497
498
501
506
511
517
519
517
512
506
500
500
503
507
514
519
520
516
511
504
498
497
500
505
513
518
520
517
512
505
501
499
502
506
512
516
518
515
511
504
499
499
501
508
512
519
520
517
511
504
499
498
500
504
512
517
518
515
510
503
499
498
502
507
514
519
519
516
511
504
500
498
501
506
514
519
520
517
513
506
500
500
503
508
515
519
520
518
512
504
500
500
504
508
515
520
521
519
514
507
501
499
502
507
514
520
520
516
512
505
500
500
504
509
517
523
524
520
515
507
501
501
504
509
516
522
523
520
515
508
503
502
507
509
516
520
521
519
514
507
502
501
504
508
516
521
522
519
515
508
503
503
505
510
517
521
522
519
513
507
502
501
505
510
518
523
524
521
517
509
504
503
507
510
517
522
522
520
515
508
506
507
512
517
524
529
530
527
520
516
509
508
511
515
522
527
528
524
520
513
508
508
510
515
522
528
530
530
526
517
510
508
510
516
521
528
528
525
520
513
508
507
509
512
516
520
520
516
512
505
501
502
505
508
515
520
521
518
514
507
502
501
504
510
517
521
522
519
514
507
503
504
506
511
518
523
523
521
519
514
511
514
522
534
548
560
568
572
574
576
576
582
590
597
604
605
599
585
568
546
526
511
499
492
488
485
479
472
464
455
451
454
461
471
484
493
497
499
498
494
491
492
497
504
513
520
519
517
512
505
500
500
503
507
512
518
518
515
510
503
499
499
500
510
519
524
525
522
517
509
504
503
505
512
519
524
525
523
518
511
506
504
508
513
520
524
524
521
515
508
504
503
508
513
520
525
527
526
523
515
513
513
516
524
527
532
532
530
524
517
511
510
513
517
525
530
531
528
526
521
517
517
520
525
531
533
536
534
529
521
516
515
518
523
528
532
530
525
519
512
508
508
510
515
521
527
528
525
519
509
502
499
502
506
514
520
521
518
512
503
496
493
496
501
508
515
513
511
506
499
493
492
496
502
509
513
514
511
506
499
496
494
497
501
509
514
514
510
505
497
492
493
497
503
510
515
515
513
508
500
496
495
499
504
511
516
516
510
506
499
495
495
500
504
511
516
516
513
508
500
496
497
499
504
512
516
519
515
511
500
499
498
503
505
512
516
516
513
509
502
498
497
500
504
512
516
517
514
510
503
498
498
500
505
513
519
518
515
511
504
499
498
502
507
514
519
519
516
512
505
500
501
503
508
516
520
520
517
512
504
499
499
502
508
515
519
520
517
510
504
499
500
503
508
515
520
520
516
512
505
501
500
504
509
516
521
520
518
513
505
501
501
504
510
517
521
522
518
513
508
500
500
503
508
514
520
519
518
511
504
499
500
504
508
517
521
522
516
512
508
501
500
505
510
517
521
521
518
512
505
501
500
506
511
518
522
522
519
514
506
502
501
503
511
518
523
523
519
513
504
501
500
507
510
518
522
521
518
512
505
500
500
504
511
517
521
521
517
513
506
502
502
504
509
517
522
522
520
515
511
503
503
506
511
518
521
522
518
513
506
502
502
505
510
517
522
522
518
513
506
503
505
511
516
526
530
531
526
521
514
509
509
512
517
524
529
529
524
520
513
509
508
512
517
524
528
529
528
525
517
512
510
511
516
523
527
528
524
519
512
507
507
510
512
519
519
521
517
512
506
502
502
505
511
518
521
521
516
512
505
501
501
505
510
517
521
520
518
512
504
501
502
505
510
516
520
520
517
513
508
506
508
517
528
544
555
562
566
568
568
570
577
586
596
607
609
604
591
575
555
536
521
509
502
497
491
481
472
463
453
448
450
458
468
479
487
492
492
491
488
486
490
494
501
510
516
517
514
510
504
499
499
503
508
515
518
518
513
507
501
497
497
501
507
516
522
524
520
517
510
505
504
507
512
519
523
522
520
516
509
505
504
507
513
519
522
523
519
514
507
503
503
506
511
520
523
524
521
518
513
510
511
515
518
526
529
528
524
519
512
508
509
512
519
527
529
528
524
520
516
514
516
520
526
533
537
536
531
524
516
512
513
517
523
530
533
531
525
518
508
505
506
509
515
522
526
525
522
516
508
502
501
503
508
515
518
518
514
510
503
496
495
496
500
506
510
509
507
502
495
491
492
496
501
509
512
513
509
504
497
493
493
498
504
510
515
514
509
504
497
494
494
499
504
512
516
516
511
507
499
496
496
500
506
513
517
516
512
507
499
495
498
501
507
513
517
516
513
508
501
496
498
502
511
515
518
518
514
508
500
497
497
501
507
514
517
516
512
506
500
497
498
503
508
515
519
518
513
508
504
499
500
504
510
517
520
518
515
509
502
499
499
504
510
517
520
520
515
509
502
498
499
503
509
516
520
520
516
511
503
499
499
503
508
517
520
519
516
511
504
501
502
504
511
518
521
521
517
511
504
501
501
507
512
519
522
521
517
511
504
500
502
505
511
516
521
521
517
511
504
501
502
506
512
519
523
522
518
512
506
502
502
505
510
517
520
520
514
510
504
501
502
507
511
519
522
520
517
512
504
501
502
506
512
519
520
521
517
512
504
502
503
507
513
520
523
522
518
512
505
501
502
506
510
520
523
521
517
512
504
501
502
505
512
519
523
523
519
513
505
501
501
506
512
519
523
522
519
513
506
501
503
508
514
521
525
524
520
514
506
504
506
509
514
520
523
522
519
512
507
504
506
513
521
529
533
532
528
523
515
511
511
515
520
527
531
529
526
521
513
510
511
514
520
527
529
529
527
524
518
515
514
516
519
524
528
527
523
518
511
508
510
513
517
523
524
521
516
510
503
501
502
505
512
519
523
522
519
513
506
502
500
506
513
519
523
521
517
512
505
501
503
507
513
519
523
522
518
512
505
505
507
515
525
535
549
555
558
560
560
563
571
581
593
604
610
607
597
583
564
547
534
524
514
508
499
488
475
464
454
449
449
456
465
478
485
491
492
491
487
487
489
496
503
512
516
516
513
508
501
498
499
503
508
515
517
516
512
508
501
498
499
504
510
519
523
525
523
518
511
507
506
511
517
523
527
525
521
516
508
504
505
510
515
522
525
524
521
515
508
506
507
510
515
521
523
523
519
514
510
510
513
517
523
529
531
530
525
520
513
510
511
515
520
527
529
528
524
519
513
513
516
522
528
535
536
535
530
524
517
513
515
519
524
530
533
532
525
518
509
504
505
509
514
524
527
526
522
517
510
505
504
504
510
516
520
519
516
509
504
499
496
500
504
511
513
512
508
503
497
492
495
499
504
511
514
512
508
503
496
494
496
501
506
513
515
514
510
502
498
495
497
500
506
513
515
514
508
503
497
494
496
501
508
513
518
514
511
505
498
495
496
500
506
514
514
515
510
504
497
495
497
502
508
512
517
515
511
505
498
496
497
502
506
515
518
517
513
507
500
497
499
500
508
514
517
516
511
505
497
496
494
500
508
515
518
516
512
506
499
496
498
503
509
516
518
517
513
507
498
498
499
504
510
516
519
518
514
506
501
498
499
503
510
517
520
518
512
508
501
497
498
503
509
516
519
518
516
508
502
499
500
506
512
518
519
518
514
508
502
499
501
505
511
515
520
520
515
508
502
499
500
505
512
519
522
522
518
511
503
500
501
502
511
517
520
520
517
511
504
502
501
507
511
518
522
519
515
509
503
499
502
507
512
519
521
519
516
510
499
501
502
506
513
520
522
521
516
508
503
501
502
507
513
520
523
524
516
512
505
502
504
508
514
521
523
520
518
512
505
503
504
508
514
522
521
522
518
512
505
502
503
509
513
522
522
521
517
512
505
502
504
508
513
522
522
520
517
511
505
502
505
512
519
527
531
530
525
520
512
510
512
515
522
528
530
528
524
519
512
507
511
515
520
527
529
527
524
520
514
516
516
518
522
527
528
527
522
515
511
509
511
515
520
527
527
523
514
509
502
499
501
505
512
519
521
517
515
509
502
499
501
506
512
518
519
520
516
510
503
501
502
507
512
516
521
520
517
511
505
504
508
515
522
534
542
548
551
554
554
559
567
576
590
603
610
610
603
591
574
559
545
538
529
522
511
497
483
469
458
451
453
458
468
477
484
486
486
483
480
483
489
497
505
514
517
518
515
507
502
499
501
505
511
517
519
517
512
507
501
499
500
504
510
516
520
518
519
515
509
507
508
512
519
525
525
525
521
515
508
505
506
510
516
521
525
524
520
514
508
506
507
511
518
523
525
523
519
513
508
507
511
514
523
530
532
530
526
520
513
512
512
518
525
531
532
530
525
518
513
512
515
522
529
536
538
537
533
526
517
516
517
521
527
532
535
533
527
516
511
508
509
513
519
525
528
527
520
516
509
507
504
510
514
518
520
516
514
508
502
500
500
502
506
511
512
511
506
500
494
493
495
497
505
512
513
511
508
503
496
494
497
501
506
515
518
515
510
503
496
495
497
500
509
517
517
516
512
505
498
495
496
501
508
514
517
516
512
505
498
494
497
506
508
516
517
516
512
506
498
498
500
505
511
517
519
516
512
503
499
497
499
503
510
515
518
516
512
505
499
497
499
504
511
517
520
516
514
508
500
498
500
504
510
515
515
515
512
506
499
499
501
505
511
516
520
518
514
507
501
499
501
505
512
517
520
518
513
506
499
497
499
502
510
516
518
516
512
505
499
497
497
504
511
518
520
518
514
506
500
497
501
505
512
518
520
517
513
506
499
499
502
506
511
517
519
518
514
504
501
500
501
506
512
517
519
517
512
508
503
501
503
508
514
520
521
517
515
509
503
501
502
507
513
520
520
520
519
510
503
502
503
508
513
517
521
519
515
508
503
502
504
509
514
521
524
520
516
508
502
500
503
506
514
520
521
520
515
509
503
500
502
508
515
522
523
521
516
509
503
498
503
508
515
521
524
521
516
509
501
501
503
507
513
519
521
519
515
506
502
500
503
507
514
520
521
520
513
509
502
501
503
508
517
525
528
525
523
517
511
509
511
515
521
527
528
526
521
515
509
507
509
514
520
524
525
524
521
515
512
513
516
519
522
528
528
525
520
513
507
506
509
512
520
526
527
523
516
508
502
499
500
507
514
520
521
519
515
507
502
497
502
506
513
519
521
518
513
506
499
498
501
506
513
519
521
518
513
505
502
501
505
512
521
530
537
540
541
544
545
551
560
571
585
596
604
603
603
593
580
569
559
551
544
535
520
506
490
473
460
454
454
456
465
473
478
481
481
478
477
480
486
494
501
512
515
513
510
504
499
496
500
503
512
517
519
517
513
506
501
499
500
506
513
518
520
519
517
512
508
505
509
513
519
524
526
523
519
513
504
505
508
513
520
525
526
523
518
512
506
504
507
511
517
524
524
523
516
512
506
507
511
517
526
532
533
528
524
516
510
508
511
516
523
529
529
529
524
516
511
510
513
520
528
533
537
535
530
523
517
515
518
522
528
534
536
533
528
520
512
509
510
512
519
524
525
523
520
513
508
506
507
512
517
521
521
518
513
506
500
498
503
506
511
515
514
510
506
499
492
493
497
502
509
514
516
513
508
499
496
494
497
501
508
513
515
513
506
501
494
493
496
500
507
513
516
512
508
498
496
494
498
503
510
516
515
514
509
503
497
496
499
504
510
513
516
513
509
502
497
495
498
503
508
516
517
515
510
504
498
497
499
503
512
517
517
515
509
503
497
497
496
504
511
517
518
515
511
504
498
496
501
506
512
518
519
516
511
505
496
498
497
503
512
517
519
516
512
503
499
498
501
505
512
517
519
516
512
506
500
499
502
507
514
520
522
517
515
508
504
501
505
509
515
521
518
518
513
507
501
500
503
508
515
518
521
519
514
507
503
501
504
508
514
520
521
518
513
506
502
502
505
507
516
521
521
521
513
507
502
501
502
509
516
521
522
519
515
509
503
500
505
509
516
522
523
519
515
508
501
503
505
509
517
521
522
519
514
505
502
501
504
509
516
520
523
518
512
506
502
501
505
510
517
522
523
517
515
508
503
502
505
510
517
522
521
519
514
507
502
502
505
510
512
520
523
520
515
508
503
503
506
511
516
523
523
520
515
508
502
502
505
508
517
526
523
519
514
507
502
501
503
509
518
525
527
527
524
516
511
507
511
516
523
528
528
525
520
514
507
508
512
517
524
530
531
528
522
513
510
512
516
522
527
531
531
527
519
513
507
507
509
513
521
528
529
523
519
508
501
499
502
507
514
520
520
519
519
508
502
500
503
508
515
518
521
518
513
507
502
501
504
508
512
520
520
517
512
505
501
501
505
512
522
531
534
536
537
537
540
546
555
569
584
595
601
604
602
594
586
576
571
565
558
548
534
516
498
480
464
458
456
458
464
470
473
476
476
471
472
476
482
491
503
510
512
510
504
501
496
496
499
505
512
517
518
513
510
503
498
498
502
507
514
518
517
515
512
508
504
506
510
514
521
523
525
522
516
510
504
505
508
514
520
526
526
524
519
512
508
507
510
513
521
526
525
523
518
511
507
508
512
520
528
534
535
531
526
518
514
512
515
520
527
531
532
528
524
516
512
510
514
520
529
536
538
535
531
522
519
518
521
524
531
535
534
531
524
518
512
509
510
514
521
527
528
523
520
513
508
507
510
515
520
523
519
517
511
505
500
501
504
509
515
516
516
511
507
499
492
495
498
503
508
515
515
512
507
500
495
495
498
502
510
515
515
511
506
499
496
496
497
504
511
516
517
514
509
502
498
496
499
505
511
515
515
512
508
501
493
496
500
505
512
516
516
513
508
497
495
495
499
505
512
518
518
515
507
501
496
496
500
505
513
517
519
512
508
501
497
496
499
505
513
517
516
514
508
501
497
496
501
505
514
516
519
516
510
504
499
499
502
507
512
519
519
516
511
504
501
500
503
506
514
517
518
516
511
505
501
501
502
509
515
519
518
516
511
504
499
498
503
508
514
519
521
516
511
504
497
500
503
508
516
521
520
516
511
503
500
500
504
509
516
521
521
517
512
505
501
501
504
510
516
520
519
513
510
503
499
499
503
509
516
521
520
518
513
505
501
501
505
510
517
518
520
517
512
505
501
501
504
509
514
520
520
517
513
507
502
503
506
512
518
522
521
517
512
506
502
502
504
511
518
521
521
517
511
505
501
500
506
512
519
523
523
519
514
506
500
502
505
511
519
523
523
520
515
506
504
504
506
512
519
522
522
519
512
506
502
502
505
510
517
522
522
516
514
507
503
504
507
512
519
524
523
523
519
512
509
509
512
516
523
525
527
524
519
512
508
509
512
518
523
530
530
527
521
514
510
511
516
522
531
533
531
526
520
512
508
508
512
517
524
529
527
525
518
509
502
498
503
508
516
520
521
516
511
504
497
500
504
510
517
521
521
518
513
504
502
501
504
510
516
520
521
518
512
505
501
500
504
511
520
527
529
528
530
530
532
540
552
563
578
589
593
598
598
594
590
587
583
577
572
560
546
526
506
487
472
463
461
463
466
471
471
471
470
468
469
474
481
488
501
508
510
508
504
499
497
499
501
509
516
519
519
515
509
501
497
496
502
507
514
518
518
514
510
504
501
504
510
516
524
528
527
523
516
504
505
505
508
514
521
525
525
521
513
509
506
507
511
515
522
526
525
519
515
508
504
501
510
518
528
533
531
529
523
515
511
512
514
520
527
529
530
527
521
514
510
511
514
519
527
535
535
532
528
521
516
516
520
523
532
535
535
531
524
517
513
512
512
518
524
526
526
523
517
510
506
505
511
517
523
524
522
516
509
501
495
500
504
509
516
517
515
509
503
493
492
492
495
501
508
512
512
508
500
495
496
493
500
504
511
514
512
507
502
495
492
493
497
503
510
514
512
509
504
497
493
494
498
503
510
512
514
510
504
496
493
494
498
503
508
514
514
510
504
497
494
495
499
503
514
516
516
512
507
500
496
498
499
507
513
516
515
512
506
500
497
495
501
507
513
517
517
513
507
499
494
498
502
508
516
519
517
514
508
499
498
498
502
508
515
518
519
514
505
501
493
499
503
509
517
519
518
512
509
502
499
500
505
510
517
520
516
515
509
502
499
500
504
510
517
519
519
516
510
504
500
502
505
512
516
522
521
517
511
503
500
504
506
512
520
523
522
518
512
505
501
501
503
512
519
522
522
518
513
506
503
501
507
514
521
523
521
517
511
504
499
501
505
511
519
523
522
519
513
503
503
503
508
513
519
523
522
518
512
505
502
505
510
511
516
521
520
515
511
505
502
503
507
513
520
522
519
517
511
504
501
501
506
512
519
519
521
516
511
504
501
502
506
513
516
522
520
516
510
504
501
503
507
512
520
523
522
517
512
505
502
505
505
513
521
524
523
519
514
508
508
503
508
514
520
523
524
521
519
513
509
512
516
521
528
529
528
524
519
512
510
511
514
520
527
530
528
524
515
511
507
508
512
520
529
533
531
523
518
510
506
507
511
517
524
527
524
522
517
508
503
503
505
510
517
517
518
514
509
502
500
502
506
512
517
521
520
516
510
502
499
500
502
509
517
521
519
516
510
503
500
501
503
511
519
524
524
523
521
520
525
532
546
560
574
583
589
591
591
589
588
589
589
587
583
573
558
538
517
495
481
472
466
466
469
470
468
466
461
461
463
470
478
489
499
504
507
503
500
495
494
498
503
509
516
519
515
513
507
501
498
499
502
508
516
517
518
514
508
501
501
505
511
517
523
526
525
520
514
507
504
506
510
515
523
526
526
521
514
508
505
506
509
517
522
526
524
520
513
507
505
504
510
518
527
531
532
529
522
515
512
515
518
523
529
531
530
525
519
512
509
511
515
521
529
534
535
532
527
520
516
516
520
525
531
535
533
527
523
517
514
514
516
520
524
526
523
520
514
508
505
507
512
518
525
525
523
516
509
501
498
500
505
511
516
519
516
510
502
494
491
494
498
504
512
515
513
508
502
495
493
495
499
507
514
516
515
510
504
497
494
495
500
507
513
514
514
510
504
497
493
495
499
506
513
515
514
510
504
495
495
497
502
508
514
517
515
511
503
498
496
499
504
510
517
519
516
509
506
498
495
498
502
509
515
518
515
512
506
499
497
499
503
510
516
518
517
513
507
501
498
500
503
509
514
518
517
512
506
500
497
499
504
509
518
519
517
513
506
499
497
499
502
509
513
518
517
513
506
500
498
501
506
512
518
520
519
514
508
502
498
502
506
511
518
521
519
515
508
501
500
502
507
513
519
521
519
514
506
502
497
503
507
513
520
523
520
513
508
501
499
501
506
513
520
522
519
515
508
502
499
502
506
513
520
520
519
515
509
502
499
502
506
513
518
521
519
515
509
502
500
501
506
512
520
522
520
513
510
503
501
503
506
514
520
522
520
515
509
503
501
502
508
514
520
522
519
515
508
502
498
502
507
514
520
522
520
516
510
502
502
505
508
515
521
524
522
518
512
506
503
505
509
515
521
523
521
515
511
506
504
506
510
515
520
522
519
515
511
503
503
505
510
517
524
523
523
519
514
509
509
512
517
524
529
531
528
523
516
510
507
510
515
521
528
529
528
524
517
511
509
512
513
522
530
533
531
525
517
509
506
506
512
518
525
528
526
522
515
508
503
505
508
514
519
521
519
514
508
501
500
503
508
513
519
521
518
514
505
502
501
502
507
514
519
521
519
513
508
502
500
503
507
513
520
524
521
519
517
515
520
529
541
555
569
575
582
583
583
583
586
590
594
595
591
583
568
550
528
507
493
482
476
471
475
473
470
464
460
458
460
468
475
488
500
505
506
505
501
496
496
498
504
513
519
521
518
513
505
499
495
499
505
512
518
519
517
512
506
499
500
505
512
519
526
527
525
520
512
506
504
506
511
518
524
526
523
518
511
504
503
506
511
517
524
527
520
518
512
506
504
506
511
518
525
527
528
525
519
514
512
514
518
524
529
531
528
523
517
512
511
513
517
523
530
533
532
528
524
519
517
519
523
530
535
536
533
530
522
518
516
517
522
526
530
530
526
521
514
509
507
511
515
522
527
529
525
519
509
500
499
501
506
514
521
522
518
511
501
495
494
495
500
508
513
515
513
506
501
495
495
497
501
509
514
515
512
508
502
496
495
498
502
509
515
515
514
509
502
497
495
497
502
509
512
515
513
509
502
497
496
498
502
508
515
516
514
510
503
497
496
499
501
510
515
517
514
509
503
498
497
498
504
510
515
516
514
510
503
498
496
500
504
511
517
518
515
510
503
497
497
501
506
513
518
520
517
512
505
500
499
501
505
512
518
519
516
512
505
499
499
501
506
514
519
521
516
513
505
499
498
501
505
512
518
519
519
512
504
499
498
501
506
513
518
523
519
513
507
502
501
503
508
515
520
522
519
514
507
502
499
502
505
514
519
524
517
514
507
502
501
503
509
515
520
522
519
514
507
501
499
503
508
516
520
521
518
513
506
499
499
502
507
513
518
519
517
513
505
496
500
504
508
515
520
521
518
512
508
503
505
505
511
516
522
522
519
514
506
501
501
504
511
516
521
519
519
515
508
503
502
505
510
516
517
523
519
515
508
502
501
504
509
515
522
524
520
515
508
502
501
503
507
515
521
522
519
515
507
502
502
503
509
515
521
520
518
514
506
500
499
504
509
516
521
522
519
516
511
507
509
513
517
524
531
529
526
521
513
509
508
511
518
523
527
529
526
521
514
509
509
512
517
524
531
534
532
527
518
511
508
510
516
523
527
527
526
522
515
510
508
509
511
516
519
520
518
512
505
500
500
504
508
514
520
521
519
515
507
501
500
504
508
516
521
521
518
513
507
502
501
503
509
517
522
523
522
519
514
512
514
524
536
552
565
574
578
580
579
579
585
592
598
604
602
593
577
559
537
519
503
493
485
484
480
478
468
460
454
452
455
463
473
486
496
501
500
501
497
494
494
498
504
512
517
517
514
509
502
497
497
501
506
513
517
519
516
511
504
499
498
503
510
517
524
526
522
518
511
506
505
509
513
521
526
526
523
518
511
507
506
507
514
520
525
526
522
517
509
504
503
508
513
520
525
527
526
522
516
512
511
515
519
525
530
530
527
522
514
511
510
513
517
523
528
529
527
523
520
517
516
519
524
531
535
535
531
529
521
516
516
518
522
528
530
527
523
518
511
507
507
510
515
523
526
528
524
518
509
502
500
503
507
513
519
519
517
511
501
495
493
495
499
508
513
514
511
506
499
495
499
495
503
510
514
515
513
508
500
495
493
497
502
509
515
515
513
508
500
495
494
498
503
510
515
516
513
509
500
497
496
499
504
511
516
515
512
507
500
496
496
498
504
511
516
515
512
509
501
496
496
499
504
511
515
515
513
509
501
496
496
499
500
511
516
516
514
509
501
496
496
500
505
512
517
518
515
509
502
498
499
503
507
514
519
517
514
509
502
498
498
501
507
515
519
519
515
510
502
497
499
501
506
513
517
517
514
510
503
500
499
502
507
514
519
520
517
511
505
499
499
502
507
514
517
519
516
511
504
500
500
504
509
516
521
521
518
512
504
500
500
505
510
517
521
523
518
513
504
499
499
503
508
516
521
520
517
513
506
502
501
504
509
517
521
520
517
511
504
500
500
504
509
515
520
521
518
513
507
502
502
507
510
517
521
521
518
512
504
500
501
503
509
516
521
521
517
513
506
502
501
504
509
516
520
520
517
512
506
500
501
504
509
516
520
520
517
511
505
502
502
506
511
518
522
521
518
512
505
501
502
506
512
519
523
524
519
513
506
503
503
507
512
519
524
523
519
513
506
504
507
512
517
526
529
529
525
520
513
508
509
511
517
523
528
528
525
520
513
509
509
513
517
524
529
531
530
526
519
513
511
513
517
524
528
528
524
519
512
508
507
510
513
518
521
520
516
511
507
502
503
506
511
518
522
522
519
515
506
502
501
505
510
518
522
522
519
513
506
502
502
505
512
518
523
523
520
515
510
508
512
520
532
545
558
564
568
570
570
571
577
586
595
605
606
600
587
570
550
531
516
504
498
492
486
477
468
460
452
449
451
462
471
484
493
497
496
495
490
489
493
497
504
513
518
519
516
509
501
499
497
502
506
514
517
518
514
508
503
498
498
503
510
520
525
523
522
516
508
504
504
508
513
521
524
523
520
514
508
504
505
508
514
521
524
525
520
515
508
505
506
509
514
521
525
524
522
520
515
513
513
518
522
529
532
531
527
521
514
510
510
514
521
527
531
531
526
523
518
516
516
522
526
533
537
536
533
527
520
516
517
520
526
532
535
532
527
520
512
510
509
513
518
526
528
529
528
522
511
505
504
506
511
517
521
521
518
514
503
498
497
500
505
511
515
515
511
506
499
495
496
499
505
512
515
515
512
507
500
496
497
500
506
513
518
516
513
507
500
496
496
500
505
514
517
516
512
506
499
495
497
500
507
513
517
515
511
505
499
494
495
500
505
513
517
516
513
507
500
496
499
501
504
514
517
517
512
507
500
498
497
501
506
512
516
515
511
506
501
496
498
501
507
514
518
518
514
510
502
498
497
502
507
514
518
517
515
509
502
499
499
503
509
515
519
519
513
508
501
498
499
504
508
515
519
517
514
508
502
498
499
503
509
518
520
519
516
509
502
499
500
505
511
518
520
519
515
510
503
499
499
504
509
515
519
519
514
509
502
498
501
503
510
516
520
519
516
510
502
501
501
504
510
517
521
520
517
511
504
500
502
506
511
518
522
521
517
511
504
501
502
507
512
519
523
522
519
513
506
502
502
505
511
519
523
525
519
513
505
502
503
507
513
520
524
522
518
512
504
500
501
505
511
519
520
524
517
512
504
501
502
505
511
516
522
521
517
511
505
502
503
508
513
520
523
523
518
513
506
502
505
507
513
520
524
523
518
513
506
504
503
508
512
519
523
522
518
513
507
504
507
513
519
527
531
529
525
521
513
510
510
514
520
527
530
529
527
520
513
509
510
514
523
527
530
531
528
524
518
513
511
513
517
524
529
527
523
517
510
506
507
511
515
523
524
521
516
510
504
500
501
506
513
519
521
519
515
509
503
499
500
506
510
518
521
521
517
511
504
501
503
505
511
517
521
519
515
510
505
506
508
515
525
539
549
556
560
564
565
566
574
584
594
606
608
606
596
580
560
543
529
519
509
504
495
484
474
462
452
448
449
457
468
480
487
495
491
489
485
486
489
495
502
511
517
516
512
506
499
496
497
500
508
517
518
516
512
507
500
497
498
502
510
518
524
525
521
516
509
505
504
509
514
521
524
525
520
514
507
505
507
510
515
522
525
524
520
515
508
506
506
511
517
524
526
524
521
517
514
512
514
519
524
531
534
532
527
522
513
510
512
516
522
528
531
530
527
521
515
513
516
524
528
535
538
536
531
525
518
514
515
519
525
531
534
531
524
517
509
506
506
511
517
525
527
526
522
516
508
503
502
505
511
517
520
519
515
508
502
497
496
500
503
509
512
512
508
503
496
493
496
499
505
512
515
514
510
505
498
496
496
500
505
513
515
514
511
505
500
496
497
501
507
513
516
515
511
507
499
495
497
502
507
515
518
515
514
506
500
497
497
501
506
514
518
518
513
506
498
495
497
501
507
514
518
516
513
507
500
497
499
502
508
516
517
515
511
505
499
496
498
503
510
515
518
517
513
507
501
499
499
505
509
516
519
518
514
508
501
498
501
504
510
517
520
518
514
508
501
501
501
505
511
516
520
518
513
508
503
498
499
503
509
516
519
519
515
511
504
501
502
506
511
517
519
518
516
508
502
500
502
505
511
518
521
520
515
510
504
502
503
507
513
520
524
521
517
511
505
502
503
507
513
520
521
520
516
511
503
501
504
508
515
520
525
523
515
511
504
502
503
509
512
521
524
523
520
513
506
503
505
508
514
521
524
521
516
510
504
503
504
509
515
522
524
523
518
512
506
502
503
508
514
520
522
520
516
511
503
500
500
506
512
519
522
522
519
511
504
502
503
509
514
521
524
524
518
512
504
502
503
507
512
519
523
520
513
510
503
502
504
508
515
523
524
522
517
511
504
502
505
511
522
529
532
530
526
520
512
511
511
516
520
526
529
527
523
517
510
508
510
513
518
525
527
527
523
519
514
513
511
514
519
524
526
524
520
515
510
506
508
512
518
524
525
520
515
509
501
499
501
505
512
519
522
521
512
511
504
502
503
507
513
519
521
521
515
509
503
501
503
507
514
520
523
520
515
509
504
504
508
519
526
539
546
551
555
556
557
561
569
579
593
604
609
608
599
584
570
554
542
529
522
514
504
491
477
464
453
448
451
455
464
476
483
487
487
486
484
487
491
498
505
512
515
515
513
509
501
498
500
504
511
517
519
517
513
508
500
498
499
503
509
516
520
523
519
514
508
505
507
511
517
524
526
526
520
513
506
503
504
508
514
521
524
521
517
511
510
503
505
509
516
524
525
523
518
512
507
508
511
517
524
529
531
529
525
519
511
509
511
516
520
527
531
528
523
517
511
512
517
521
528
535
536
534
529
523
515
514
515
520
527
534
536
534
527
519
511
507
508
513
519
526
528
527
523
518
510
507
506
508
513
519
520
518
516
508
502
499
499
501
507
512
514
513
508
501
496
494
496
502
508
515
518
514
510
503
497
495
497
502
508
516
517
514
510
503
496
494
496
501
508
514
516
515
511
504
498
499
499
505
510
515
517
514
510
504
497
495
499
502
509
515
515
515
510
503
499
497
498
503
510
516
518
515
511
505
500
497
500
504
511
518
520
517
512
506
498
496
498
503
510
516
518
515
511
504
498
497
499
504
511
518
519
518
512
506
501
499
501
506
512
518
521
518
513
507
500
498
500
505
511
518
520
517
513
506
500
499
502
507
515
520
522
519
514
508
501
500
502
508
512
520
522
520
515
508
501
500
503
507
514
520
521
520
515
508
502
501
502
507
514
520
522
520
516
509
504
500
503
507
514
520
522
522
515
509
503
500
501
508
515
522
523
521
517
510
504
502
504
509
515
521
523
522
517
510
505
503
506
511
517
524
526
522
518
511
505
503
505
509
516
523
524
521
516
509
503
502
505
510
518
522
524
522
517
510
504
502
505
510
516
521
523
521
516
510
503
502
504
508
515
520
522
520
516
510
504
503
505
510
516
521
523
519
515
508
503
501
503
509
516
522
524
522
518
511
504
502
504
509
518
527
530
528
525
518
511
509
511
516
523
528
529
528
523
516
510
509
511
515
521
527
529
526
522
517
513
514
516
519
524
529
528
525
520
513
506
505
509
515
523
528
527
527
516
508
502
500
502
508
515
520
521
518
514
507
500
499
503
507
514
520
521
519
514
507
502
502
503
508
515
520
521
519
514
508
503
503
507
514
523
533
540
544
546
547
548
554
564
575
589
601
608
608
604
592
577
564
556
546
537
527
512
500
483
467
455
449
451
455
464
473
480
482
482
480
477
481
486
493
504
511
513
512
509
503
498
498
501
506
514
519
520
517
512
504
499
498
501
507
513
519
519
520
516
511
506
506
510
514
520
524
525
522
517
510
505
505
506
510
517
522
523
521
516
510
506
503
508
512
518
523
523
521
516
510
505
507
512
520
527
531
531
528
523
514
510
509
513
519
526
532
533
530
524
516
512
512
517
524
533
538
539
535
529
522
516
515
518
523
529
535
535
532
527
518
511
509
511
515
523
527
528
525
522
512
508
509
510
514
518
521
521
518
513
507
501
501
504
506
510
513
512
509
504
498
493
494
497
502
505
514
515
512
507
500
497
495
498
503
510
516
517
514
508
502
495
495
499
504
510
515
516
513
509
502
497
496
499
504
511
516
516
515
508
501
495
495
497
503
511
516
517
513
508
501
495
495
498
503
511
516
516
513
508
502
497
496
499
504
513
517
517
515
509
503
498
498
501
507
513
518
518
515
510
503
498
497
501
505
512
519
518
516
510
502
498
499
502
507
513
518
518
514
510
502
498
497
500
506
513
518
518
514
508
501
496
496
501
506
513
518
519
516
511
503
498
497
501
507
514
518
518
516
510
503
499
498
501
506
514
519
520
515
510
503
498
497
501
505
512
519
519
516
512
505
499
499
500
506
515
518
518
514
509
503
498
498
503
509
515
520
520
516
510
503
498
498
502
506
514
519
520
516
511
503
499
500
502
508
515
519
519
516
512
505
501
500
503
508
515
520
522
517
512
506
501
500
503
509
519
522
522
518
514
506
501
501
505
511
518
522
522
521
513
505
501
501
505
511
518
523
523
518
513
505
501
501
504
511
519
524
523
520
514
506
503
504
506
511
519
521
521
518
512
505
502
502
506
513
520
527
528
526
521
514
509
510
514
518
525
528
528
525
521
512
508
508
510
515
523
527
528
524
520
512
510
513
517
523
528
530
527
523
517
511
506
507
512
517
525
529
528
523
517
507
502
502
505
510
517
521
521
519
512
507
501
502
505
511
517
521
523
517
512
505
501
501
505
511
518
523
522
520
513
506
502
502
506
514
523
529
534
535
536
536
541
549
560
574
587
597
603
604
601
592
584
577
570
562
555
543
527
511
491
473
461
458
457
460
467
473
476
476
474
472
474
477
485
492
506
512
513
511
507
503
498
500
503
509
515
519
517
513
509
501
498
499
503
509
517
520
519
517
512
508
506
506
512
517
524
527
526
521
515
507
504
504
508
514
521
526
524
520
515
507
505
506
509
515
524
526
525
521
515
508
504
506
512
521
528
532
531
527
521
514
511
512
516
521
528
531
530
526
521
514
510
511
515
523
532
538
537
534
528
520
517
518
521
524
533
537
536
531
524
516
510
509
511
517
524
527
526
523
518
510
508
510
512
518
522
523
520
516
509
503
500
501
504
511
516
517
519
509
502
496
493
494
500
506
512
516
514
510
505
497
494
496
501
506
513
515
514
509
503
497
494
496
500
507
512
515
514
509
503
496
493
496
501
507
514
517
515
512
505
499
495
498
500
506
514
515
512
511
506
499
497
497
501
507
514
517
515
511
505
500
496
498
503
510
517
519
518
512
506
498
495
497
502
509
516
520
518
515
507
500
497
498
503
509
517
520
519
514
508
501
498
500
505
511
517
520
518
514
508
501
497
502
502
510
519
520
518
514
508
501
498
500
504
511
517
520
518
513
506
500
498
502
505
511
518
520
519
514
508
502
499
502
505
512
519
522
520
516
511
504
502
502
506
512
519
522
520
515
510
505
501
502
507
513
519
522
520
516
510
502
499
501
505
512
519
521
519
516
509
503
501
503
508
514
521
523
522
517
511
505
502
503
507
513
520
523
521
517
511
503
501
504
508
515
521
523
520
516
510
503
501
503
507
515
520
522
520
516
509
503
501
503
508
515
521
523
521
517
510
503
501
504
508
514
520
523
522
518
512
505
502
503
507
513
520
521
519
515
509
503
502
504
509
516
522
524
522
517
511
504
501
504
508
514
522
525
526
523
519
511
509
512
516
522
527
529
527
523
516
511
510
512
516
523
528
530
527
523
516
510
509
515
521
529
534
534
529
523
515
509
507
510
515
522
529
531
529
524
516
508
504
504
507
513
519
522
520
516
509
503
501
503
507
513
519
520
518
514
508
502
500
502
507
514
520
522
520
515
509
502
501
503
508
517
526
530
532
531
531
531
536
546
559
572
585
592
596
598
595
591
588
586
581
576
569
557
540
520
500
481
470
463
462
465
469
470
469
468
466
465
469
476
484
494
504
508
507
504
499
496
496
499
505
511
517
517
515
510
503
496
495
498
503
510
516
518
516
512
506
502
502
506
512
519
525
527
523
516
511
505
504
506
511
517
523
525
522
517
510
505
504
507
512
515
525
526
527
518
511
506
505
507
513
522
530
533
531
526
519
512
510
512
517
523
528
529
526
521
514
509
509
512
516
525
532
536
534
530
523
516
515
517
522
530
535
536
533
528
521
515
511
513
514
520
524
525
524
520
513
507
506
508
514
520
524
523
519
512
505
498
498
502
506
514
519
518
513
506
499
494
494
498
503
510
515
515
511
506
499
494
493
496
501
508
513
514
511
506
500
495
495
498
503
510
514
515
511
507
499
494
494
498
503
511
515
516
514
508
502
496
495
498
504
511
516
517
513
507
500
496
496
500
505
512
517
517
513
509
503
498
499
499
504
511
515
516
513
508
501
496
496
500
505
512
516
517
514
510
503
498
498
502
506
513
518
518
515
510
503
498
498
502
507
514
519
518
515
510
502
497
493
499
505
511
516
517
514
510
503
497
497
500
505
512
517
518
515
510
502
497
496
500
505
513
517
517
514
509
502
497
497
500
505
512
516
517
513
509
503
499
500
503
508
516
520
519
516
510
502
497
498
501
508
515
520
520
516
511
504
500
500
503
508
515
519
519
516
512
505
500
501
504
510
516
520
519
515
510
502
499
500
503
508
515
519
519
516
511
505
501
503
505
510
518
522
521
517
513
505
502
502
506
510
517
521
521
518
513
505
502
502
506
511
518
522
523
520
513
506
501
501
504
509
517
522
522
518
513
506
502
503
507
512
519
524
522
519
513
507
500
501
506
511
519
523
522
518
513
506
502
502
505
511
518
522
522
520
517
511
509
510
513
518
525
530
530
526
520
513
509
510
512
518
525
529
529
526
521
513
510
509
513
520
528
533
527
527
522
511
508
508
513
519
526
530
529
524
519
511
506
503
505
509
515
515
518
516
512
505
502
502
506
510
518
522
521
517
512
505
501
502
505
512
518
522
521
517
511
504
500
501
504
510
518
524
526
525
523
521
524
531
542
556
570
580
587
589
590
588
589
592
594
592
589
581
567
549
528
507
490
479
473
471
473
473
470
466
462
457
460
465
474
484
495
502
505
505
501
495
493
497
502
509
516
519
518
514
508
500
497
498
503
508
515
519
516
513
506
501
499
503
509
516
524
526
526
521
516
508
505
506
510
516
523
526
524
520
514
507
504
506
511
517
524
526
525
521
515
508
505
506
511
517
525
530
531
528
522
516
511
512
516
521
527
531
530
526
519
513
510
511
515
521
529
533
534
532
527
520
517
518
522
527
534
537
536
532
525
519
516
517
520
523
527
530
525
520
516
509
507
508
512
518
525
528
526
520
511
503
499
502
507
512
519
521
519
511
503
494
492
494
500
506
513
516
514
509
504
497
495
497
501
508
515
517
515
510
503
496
494
496
501
508
514
516
514
510
504
497
495
497
503
509
515
517
515
510
505
497
495
498
503
509
515
518
516
510
504
497
495
496
501
508
515
518
517
512
505
498
496
499
504
509
514
519
517
511
504
497
495
498
503
509
516
518
514
511
504
498
496
499
504
510
516
518
516
512
506
500
499
504
505
511
517
519
517
512
505
499
498
500
504
511
518
519
517
512
506
500
496
502
506
513
519
520
517
512
505
499
497
500
506
512
519
522
519
514
508
502
499
502
506
513
519
521
518
514
507
501
499
502
506
512
518
520
518
514
508
502
500
503
506
512
519
520
518
514
509
503
501
503
507
513
519
521
519
516
509
503
501
503
508
514
520
521
519
514
508
502
500
502
506
514
520
523
520
515
508
503
501
504
508
514
520
521
519
514
507
501
500
503
508
514
520
521
519
514
508
502
501
505
508
514
521
523
520
517
508
503
501
504
507
514
520
521
520
516
510
504
503
506
508
515
520
521
518
514
508
503
502
504
509
516
522
524
521
516
509
503
500
504
508
515
521
522
519
516
511
508
509
512
517
523
528
528
525
521
513
508
507
510
514
521
527
528
524
520
513
508
507
510
514
522
529
533
530
525
516
508
505
507
512
519
525
527
530
518
512
505
504
505
508
513
518
518
515
511
505
499
499
503
508
515
521
522
519
514
510
501
501
503
508
515
520
521
517
513
505
501
499
503
508
515
519
521
520
517
513
511
516
525
537
552
564
572
576
578
578
579
584
591
597
602
601
591
577
558
537
517
500
490
482
479
477
473
467
461
454
452
456
463
473
486
496
501
501
500
495
493
493
499
505
513
519
520
516
511
503
499
497
500
506
512
517
518
515
510
503
498
498
503
510
519
525
526
523
517
509
504
503
505
510
517
522
522
519
515
508
503
503
506
511
518
523
523
520
515
509
503
503
507
512
519
524
526
526
523
517
513
513
516
521
528
532
531
528
522
515
510
510
514
519
526
531
531
529
525
520
516
516
520
524
532
539
536
532
527
520
516
516
519
524
529
531
528
523
517
510
506
507
511
516
524
528
528
524
517
507
500
499
503
509
517
522
521
522
511
501
495
494
497
503
511
516
515
512
506
498
494
495
499
504
511
515
515
511
506
499
495
495
499
504
512
516
516
512
507
499
495
495
499
505
513
518
517
518
508
505
498
498
502
508
514
517
517
513
508
500
497
498
501
507
514
514
519
514
509
502
497
499
502
507
514
518
517
513
508
501
498
499
502
510
516
519
518
513
508
501
497
498
502
507
514
518
517
514
508
501
498
499
503
509
516
520
519
515
509
502
499
499
502
508
515
519
518
514
509
502
498
499
503
508
515
519
518
515
509
502
498
499
503
509
516
519
519
514
510
503
499
501
504
511
518
521
520
516
510
503
500
501
505
512
518
521
522
515
511
503
500
501
506
511
518
518
519
516
511
504
501
502
506
512
519
522
521
517
511
503
500
501
505
511
518
522
520
517
511
504
500
502
507
513
520
524
521
517
511
504
501
502
506
512
519
522
521
516
511
504
501
502
506
512
518
520
519
515
510
504
502
504
508
514
521
523
522
517
511
504
501
502
507
512
519
521
521
516
506
504
501
503
507
514
521
524
523
518
512
504
500
502
505
511
518
521
520
519
510
504
500
502
506
513
523
522
521
517
511
506
504
508
514
521
528
531
529
525
518
511
508
510
513
520
527
530
529
524
518
511
508
509
514
520
526
528
530
527
521
514
510
510
513
519
525
528
526
522
516
510
508
510
513
517
522
522
519
515
508
502
501
503
507
513
520
522
520
515
509
503
501
502
507
513
519
523
521
516
510
503
500
502
507
513
520
522
520
517
513
509
509
514
523
536
550
559
566
568
571
568
573
582
592
602
609
608
599
583
564
544
527
515
505
498
492
485
476
467
458
450
449
454
460
475
485
492
494
493
491
488
489
493
499
507
515
519
517
513
507
501
499
501
505
511
516
518
515
511
505
499
497
499
504
513
522
526
526
521
515
509
506
508
515
520
526
527
524
520
513
507
504
507
511
518
525
527
525
520
513
507
505
507
511
518
524
526
526
522
518
513
512
515
520
526
532
533
530
525
518
511
509
512
517
524
530
532
529
524
519
515
515
518
523
529
535
536
532
528
522
515
513
516
520
527
532
532
527
521
513
506
504
506
512
519
525
527
524
520
513
506
503
503
506
512
517
519
517
513
507
496
496
496
499
505
512
514
512
508
501
495
493
496
499
507
513
514
511
506
501
496
493
498
502
509
514
515
513
508
501
495
494
498
503
509
515
516
513
509
502
496
495
498
503
511
516
517
514
509
502
496
495
497
502
509
515
516
513
509
502
497
496
499
504
510
518
517
514
510
503
497
495
498
504
511
516
518
515
510
502
497
495
498
503
511
517
517
515
511
504
499
498
500
505
513
518
519
515
511
504
499
498
502
506
514
519
520
516
512
505
501
499
502
508
515
520
520
518
512
505
500
499
502
507
515
520
521
518
513
505
500
499
502
508
514
519
520
516
512
504
500
499
501
507
514
519
519
516
511
503
498
497
500
505
512
518
519
516
511
504
500
499
502
507
514
520
520
517
513
509
503
502
505
510
517
521
521
518
512
505
499
498
502
508
515
520
522
518
513
507
502
502
505
508
516
521
519
518
513
507
502
502
505
510
517
521
521
517
513
505
501
501
504
509
516
521
521
518
513
506
501
501
505
509
516
521
521
518
513
507
502
502
505
510
518
523
523
520
516
509
504
503
506
511
517
522
522
519
516
507
502
501
505
510
517
521
522
519
515
509
503
504
510
516
525
530
530
527
523
515
511
509
511
516
524
529
529
527
521
513
509
509
512
517
524
528
528
527
524
519
515
513
515
518
524
527
526
524
519
512
508
508
513
518
524
525
524
518
512
504
499
499
503
507
516
521
520
518
513
505
501
501
504
508
516
519
519
516
512
505
501
501
505
510
516
521
521
517
512
507
505
507
513
522
535
545
552
556
558
558
560
568
578
589
602
609
610
604
591
573
555
542
530
520
514
505
493
481
469
457
450
448
454
463
475
484
488
489
488
485
485
488
493
500
507
514
515
514
510
502
498
498
501
507
514
520
518
515
509
501
497
498
500
506
513
520
523
522
519
513
508
507
510
514
520
524
524
520
515
508
504
505
508
515
522
526
525
520
515
507
504
505
508
514
522
526
525
521
516
510
509
511
516
522
528
532
531
527
521
513
509
509
512
517
525
528
528
525
520
514
512
515
521
528
535
538
538
533
527
519
516
517
521
526
533
535
531
526
520
511
507
507
511
517
524
528
527
522
517
510
509
508
507
511
517
520
519
515
510
504
500
498
500
504
510
513
512
508
503
496
493
494
498
504
512
515
515
511
505
498
494
495
498
503
511
514
514
510
504
497
494
494
498
504
511
514
514
510
504
498
496
497
501
507
514
518
517
513
508
500
497
498
501
507
514
518
518
512
508
501
498
499
503
509
515
518
517
513
508
501
498
500
504
509
516
519
518
513
510
501
499
501
505
511
518
520
519
516
509
502
499
499
503
509
515
518
518
512
508
501
498
499
503
508
516
519
518
514
508
501
498
499
504
510
516
520
519
516
510
503
500
501
505
511
517
519
518
514
508
502
498
500
504
511
517
520
519
515
509
502
499
500
502
511
516
521
519
515
509
502
500
501
505
511
518
521
520
516
509
502
499
500
505
511
518
521
520
516
510
503
500
501
505
512
519
522
521
517
511
504
501
503
508
514
520
523
521
518
511
504
500
502
507
513
519
523
521
516
510
503
501
503
507
513
520
523
520
516
511
503
501
502
507
513
520
523
521
516
510
504
501
503
506
512
519
521
521
516
510
504
502
503
507
513
520
522
520
516
510
504
501
504
510
516
522
525
524
520
513
506
503
504
508
515
521
524
522
518
512
506
503
504
510
518
526
530
529
526
519
512
509
512
515
521
527
530
529
525
519
513
510
511
515
521
528
530
528
524
519
515
514
516
519
523
528
529
526
522
514
508
507
509
514
519
525
526
523
517
509
503
500
502
506
513
520
522
520
515
509
502
500
502
508
513
519
523
518
514
508
501
499
502
506
513
519
522
520
516
510
504
503
508
513
522
532
540
545
548
549
550
554
563
575
588
601
608
609
604
594
579
566
557
546
537
528
518
504
489
472
459
453
452
455
463
473
480
483
484
483
482
482
487
495
504
511
514
514
511
505
500
497
499
503
510
515
518
515
511
505
499
497
499
504
510
517
520
521
518
513
508
506
508
512
518
524
525
523
518
512
506
504
506
510
517
523
525
522
518
512
507
504
506
511
517
523
525
523
518
512
506
507
511
519
525
532
533
530
525
519
512
510
512
516
523
529
529
528
523
516
510
508
513
520
529
536
539
537
532
525
518
517
518
522
528
534
535
533
527
519
512
508
510
514
520
526
528
525
520
514
509
507
509
511
515
519
520
517
512
506
500
499
500
503
508
513
514
511
508
502
496
498
497
502
508
515
515
512
507
500
495
494
497
501
508
514
516
513
508
501
495
494
496
501
508
515
517
516
510
504
498
497
499
504
510
516
517
515
510
503
498
496
498
503
510
517
518
516
511
503
499
495
498
502
509
515
517
515
511
504
499
498
502
506
512
517
518
515
511
504
499
497
500
505
511
517
519
516
512
506
500
497
499
503
510
516
517
516
512
505
499
498
500
504
511
517
519
516
513
506
500
498
501
505
512
518
519
517
513
507
501
500
502
507
514
519
521
518
514
507
501
500
501
505
512
518
520
518
514
507
500
499
501
507
514
519
521
518
513
507
501
499
502
508
515
521
522
519
512
507
502
501
503
508
514
520
520
519
514
508
502
501
503
508
515
520
521
518
513
506
500
499
501
506
513
518
519
517
513
506
501
500
503
507
514
519
520
517
513
506
501
500
503
509
515
518
522
519
514
507
501
500
503
507
515
521
522
519
515
509
504
502
504
509
515
520
521
518
514
508
502
501
504
508
514
520
521
519
515
507
502
500
503
511
514
519
520
518
515
508
503
501
504
509
515
520
521
518
515
507
502
502
506
511
519
526
529
527
522
515
510
509
512
516
523
529
530
527
521
515
509
508
511
516
522
528
530
527
523
515
510
511
515
519
525
528
528
524
519
512
507
505
508
514
522
527
528
523
517
508
501
499
501
507
514
520
518
519
514
507
502
502
503
507
514
520
521
518
513
506
501
502
505
510
517
521
522
519
514
507
502
502
507
514
522
529
534
537
538
539
540
547
558
569
583
595
602
603
601
593
583
573
564
555
548
538
525
508
491
474
461
456
454
454
463
470
476
475
475
472
471
476
483
492
502
509
512
510
507
501
496
496
498
503
510
515
516
513
508
502
496
495
498
503
510
516
517
516
512
507
504
503
507
512
519
524
524
521
517
511
506
506
509
514
520
524
525
521
515
509
503
502
505
510
519
524
525
523
517
510
507
506
511
519
527
532
533
529
524
517
512
512
515
520
527
531
531
527
523
515
511
510
514
521
530
535
537
534
529
522
516
514
518
523
529
535
536
532
527
516
512
508
510
515
522
527
528
524
519
512
506
506
508
514
519
522
521
517
512
505
500
499
502
506
511
513
512
508
503
496
491
492
496
501
509
515
515
512
506
499
493
492
494
501
509
514
515
511
507
500
494
494
496
501
509
513
514
511
506
499
493
492
497
502
509
515
515
512
507
500
495
495
498
503
510
515
515
512
507
504
495
494
496
502
509
514
516
512
508
501
496
496
500
505
511
516
517
514
509
501
496
496
501
504
512
517
518
515
510
503
498
498
502
506
513
518
518
515
510
502
498
497
500
509
514
520
521
517
512
504
499
499
502
508
515
519
519
516
511
504
500
500
503
508
515
516
521
519
513
505
500
500
503
508
515
519
520
515
511
504
499
500
503
508
515
519
520
516
511
504
500
500
503
508
515
519
520
517
512
505
501
502
505
510
517
522
522
514
513
506
501
500
505
511
516
521
521
518
513
506
501
501
504
505
518
521
521
518
513
507
503
503
506
511
518
522
522
518
513
507
502
502
505
510
517
521
521
518
513
507
503
503
506
511
519
523
523
519
514
507
502
503
506
511
519
523
522
519
514
507
502
502
506
512
519
523
523
519
513
506
501
502
506
511
518
523
523
519
513
506
502
502
507
513
520
523
522
518
512
506
502
502
506
512
519
526
528
526
521
515
511
511
514
519
525
530
529
526
521
514
510
510
513
518
525
529
529
525
520
513
510
512
517
524
530
533
531
526
519
511
507
507
510
516
523
528
528
524
517
508
502
501
504
510
517
522
522
517
514
506
501
502
505
510
517
520
521
516
511
504
501
501
503
510
518
523
522
518
513
506
502
503
507
513
520
529
529
532
532
532
536
545
556
567
582
592
598
602
600
595
589
584
579
573
566
557
541
522
503
484
471
461
460
461
468
472
473
474
473
471
473
477
486
490
503
511
513
510
507
501
498
499
502
507
513
517
516
513
508
502
498
498
503
508
516
520
518
517
512
507
504
506
511
516
523
527
526
522
516
508
504
504
508
513
520
524
523
520
515
509
504
505
508
514
521
524
523
520
515
510
506
506
511
519
528
533
533
529
524
516
512
513
516
521
529
532
531
527
520
515
511
512
516
522
531
536
536
533
528
521
516
518
521
527
533
536
535
531
526
517
512
511
513
518
524
528
527
523
519
512
508
507
512
517
523
524
521
515
509
501
497
499
503
508
514
515
513
508
502
495
492
492
497
503
511
514
513
509
503
496
492
494
498
503
510
514
514
511
505
499
495
496
499
504
511
515
514
510
504
498
495
497
500
506
512
515
515
510
505
498
494
495
500
506
513
517
515
512
507
499
496
498
502
507
514
518
516
512
507
500
497
497
502
507
515
518
518
513
507
499
495
496
500
505
513
517
517
514
508
502
498
499
503
508
515
519
518
514
508
501
497
498
503
509
518
520
519
514
508
502
498
498
502
507
514
518
518
513
508
501
497
498
503
508
516
520
521
516
511
503
499
501
504
510
517
521
520
516
511
504
501
501
504
510
516
519
519
515
509
503
500
501
506
509
516
519
519
516
510
503
499
501
504
510
517
520
520
517
511
504
500
501
504
510
518
521
521
517
512
505
501
502
506
512
519
522
521
516
510
502
500
501
506
511
519
521
522
516
511
504
501
502
506
511
518
522
521
518
513
506
502
502
507
512
518
521
520
517
511
504
501
503
506
511
517
522
520
515
510
503
501
502
505
510
517
521
520
516
510
505
501
503
507
513
519
521
520
516
511
504
502
503
507
513
520
523
521
519
511
504
501
502
506
512
519
524
525
524
519
513
511
512
516
521
527
530
528
524
519
513
510
512
514
520
527
529
527
524
518
512
508
510
515
522
530
532
530
524
517
510
507
509
515
523
527
531
529
525
518
509
504
503
506
510
517
520
519
516
511
504
500
500
506
511
517
520
520
516
510
503
500
501
505
511
517
521
520
516
510
503
500
501
505
512
520
525
527
524
524
523
528
537
549
562
577
587
593
595
595
591
589
587
585
582
578
567
552
532
512
491
476
467
463
464
469
470
471
470
467
465
468
473
481
490
501
508
510
507
503
498
496
499
503
509
516
519
517
514
508
501
497
499
503
509
515
520
517
513
508
502
502
505
511
517
524
527
526
521
515
508
505
505
510
516
524
526
525
520
514
507
505
506
512
517
523
526
525
521
515
509
506
508
512
518
527
531
532
529
523
515
511
512
515
520
526
529
527
523
517
511
508
510
515
520
529
533
534
531
525
519
517
518
522
527
532
535
533
528
522
516
513
512
515
518
524
526
526
521
516
510
508
511
518
521
527
527
523
517
510
502
498
500
505
511
518
520
517
511
503
496
493
493
497
505
511
515
514
510
504
497
495
497
501
508
514
518
516
513
505
498
496
496
500
506
513
517
515
511
505
498
496
497
502
508
515
518
517
513
507
499
496
497
502
508
515
518
517
513
507
501
498
499
502
508
515
517
517
513
507
501
498
499
503
508
516
517
517
512
506
499
496
497
501
507
514
517
515
512
506
501
499
501
506
511
519
521
519
515
510
503
500
501
505
511
518
521
520
516
510
503
500
501
505
510
518
521
520
515
509
502
500
502
505
510
517
519
517
514
508
502
499
501
505
511
518
521
519
515
509
503
500
502
507
511
517
519
518
513
507
501
499
501
505
512
519
522
521
516
510
503
500
502
507
513
520
523
522
517
512
504
500
503
506
513
519
522
520
516
510
503
502
502
506
512
519
522
521
517
510
504
501
502
506
513
519
522
520
516
510
504
501
503
507
514
521
523
521
517
510
503
500
502
506
512
519
522
520
516
510
503
501
503
507
513
520
523
520
516
510
504
501
503
508
514
521
522
520
516
510
504
501
502
506
513
518
520
519
516
509
503
501
504
508
514
520
522
519
515
509
503
500
501
506
512
519
521
521
519
515
511
509
511
514
520
526
529
527
524
518
511
509
510
513
519
524
527
524
520
515
508
506
508
513
521
529
533
530
523
516
508
504
506
511
518
525
527
526
521
516
509
502
503
506
511
517
520
518
515
509
502
501
503
506
512
517
519
518
513
508
498
500
501
506
514
518
521
519
515
508
502
499
502
507
513
520
524
524
523
521
519
524
533
544
557
570
579
584
586
587
586
588
590
592
592
588
578
562
543
521
501
486
477
471
470
472
471
467
464
460
458
460
468
477
488
499
505
506
505
500
495
494
497
503
510
516
518
517
511
505
500
497
499
503
509
515
518
516
511
505
500
500
504
511
519
527
527
525
520
513
506
504
506
511
518
523
525
522
518
512
506
504
507
511
518
524
526
524
519
514
507
505
507
511
518
526
530
530
527
521
515
511
513
517
523
529
531
529
525
518
511
509
511
521
523
529
531
532
529
524
519
518
520
524
529
535
537
535
531
524
518
515
517
520
523
527
528
525
521
514
508
506
509
514
520
526
529
525
518
510
503
499
501
506
512
519
520
517
511
503
496
489
493
498
505
512
515
514
510
504
497
495
497
503
509
515
517
514
509
502
496
494
497
501
508
515
517
515
511
504
498
496
498
502
509
515
516
514
510
504
499
496
500
504
510
516
517
515
511
505
498
497
499
503
510
516
518
516
512
505
499
497
499
504
511
516
518
515
511
505
499
498
500
504
511
517
519
516
512
507
500
498
500
505
512
517
519
517
512
506
500
499
501
505
511
517
519
516
512
505
500
498
500
504
510
517
519
517
513
507
501
499
501
505
511
517
519
518
514
507
501
499
501
505
512
519
520
518
514
507
502
499
501
506
513
520
522
520
515
508
502
500
502
506
513
519
520
519
515
508
502
500
503
508
514
520
522
519
514
508
503
501
503
508
514
520
521
519
515
508
503
502
505
509
515
522
522
520
516
509
502
500
502
507
513
520
522
520
515
509
502
500
504
509
515
520
522
520
515
509
502
500
503
508
516
520
521
520
515
508
503
501
508
508
515
522
523
520
516
509
503
502
504
510
517
523
525
523
518
511
506
503
504
509
514
520
521
520
515
509
504
503
505
510
516
522
523
521
517
509
503
502
505
510
517
523
524
522
518
513
508
508
511
516
522
529
529
526
522
515
510
508
510
515
523
528
530
527
522
515
508
507
510
515
523
530
534
532
526
518
511
509
511
516
523
529
529
526
521
515
509
507
507
509
514
519
520
518
514
508
503
501
504
506
515
519
522
519
515
508
502
501
503
507
513
518
520
517
514
506
501
500
503
508
515
522
525
523
520
515
513
519
526
537
552
566
575
580
583
582
583
587
593
598
602
601
593
576
556
535
513
497
488
481
479
478
474
469
463
456
454
456
464
475
485
496
501
502
502
497
493
492
497
503
510
517
519
517
511
504
498
497
499
505
513
518
520
518
512
503
498
498
503
510
518
525
527
524
519
512
505
503
506
511
518
524
525
522
517
510
505
505
507
511
518
524
525
522
518
510
505
504
507
512
519
525
528
527
524
519
514
512
515
523
525
532
533
530
524
517
512
511
514
518
525
528
530
530
527
523
520
519
520
525
531
535
535
532
527
521
516
514
517
520
525
528
528
524
520
513
508
508
510
515
523
528
529
526
518
509
501
499
501
506
513
519
520
517
511
503
495
494
494
499
506
513
515
512
507
500
495
494
497
502
509
515
515
513
508
501
496
495
499
505
511
516
519
515
510
503
498
497
499
503
509
515
515
512
508
501
496
495
498
503
511
515
516
513
508
502
499
495
498
503
510
516
517
515
511
505
499
498
501
506
512
516
518
515
511
503
498
498
501
506
513
518
518
514
509
502
498
498
502
506
513
518
519
515
510
503
498
497
500
505
516
518
519
517
512
505
501
498
502
506
514
519
520
517
512
504
499
499
502
509
515
520
520
517
512
505
499
498
502
506
513
519
519
516
512
505
500
500
504
508
516
519
519
516
512
503
498
497
500
507
514
520
520
517
511
504
499
499
502
507
514
516
521
516
513
506
502
501
504
509
516
521
521
519
514
507
502
501
504
508
515
520
520
518
513
507
501
500
504
509
516
520
521
518
513
507
502
501
504
509
516
521
522
519
512
507
500
501
504
510
517
522
523
519
515
508
502
502
504
509
516
521
522
519
514
511
503
502
505
510
518
522
522
519
515
508
503
502
505
510
517
522
522
519
513
507
502
501
505
510
516
521
524
519
514
507
502
503
505
510
517
521
521
518
513
507
505
508
513
518
525
528
529
525
520
513
508
508
511
515
523
528
529
525
521
513
508
508
511
516
523
531
531
529
525
517
511
508
510
514
522
527
527
524
520
513
509
509
510
512
517
521
520
517
512
505
502
501
504
509
515
520
521
517
513
506
501
501
504
510
516
520
520
517
512
505
501
501
505
511
518
522
522
521
518
513
511
515
523
536
550
562
569
573
575
574
577
582
591
599
606
608
599
584
566
545
526
511
500
492
487
483
477
469
461
453
450
454
463
472
485
490
498
498
496
492
490
491
496
503
512
518
518
515
509
502
497
496
499
504
512
518
517
514
511
504
497
499
504
511
520
525
526
522
517
509
504
504
507
514
520
524
524
520
515
506
503
502
509
513
520
523
523
520
515
508
504
503
507
512
519
523
524
522
521
514
511
511
515
520
527
531
530
527
522
515
511
511
514
520
526
530
530
527
523
518
516
518
520
526
533
537
536
533
527
520
516
517
520
526
532
534
531
525
518
511
507
507
511
516
523
527
527
523
517
508
502
500
504
508
515
519
520
517
512
503
496
494
496
502
508
512
513
510
505
499
495
495
499
503
511
515
515
511
505
498
494
495
497
503
511
515
515
512
507
500
496
496
499
504
511
515
515
512
507
499
495
496
500
506
512
517
517
513
509
501
497
499
501
506
513
517
516
513
509
501
497
497
501
507
514
519
519
515
510
504
500
500
503
509
515
518
516
513
508
500
497
498
502
508
516
520
519
515
510
503
499
499
503
509
514
518
518
515
510
503
500
500
503
509
516
518
518
514
508
502
498
499
503
508
516
520
520
514
511
504
496
500
504
509
516
520
519
515
510
503
499
500
504
509
516
521
519
516
513
505
502
502
505
510
517
521
520
516
511
504
500
501
504
510
517
520
519
517
511
505
502
501
505
510
516
519
520
516
511
504
501
502
506
511
519
521
520
516
510
503
500
501
505
511
518
522
522
517
511
504
500
500
503
509
516
520
520
516
511
504
501
503
506
512
519
523
522
518
512
504
501
502
507
513
520
524
523
519
513
506
503
504
508
514
522
525
524
520
515
507
503
503
506
511
519
522
522
519
515
507
504
505
508
513
520
523
523
518
512
505
503
504
508
513
521
524
522
518
511
505
503
506
512
519
527
531
530
525
516
512
509
510
513
518
525
529
528
525
519
512
509
509
513
517
525
527
527
526
523
517
511
511
513
517
523
527
527
523
518
512
508
508
511
514
519
520
517
513
508
503
499
500
505
510
518
521
518
517
511
504
500
500
505
510
516
520
520
517
511
504
501
502
506
512
521
520
521
517
513
508
507
511
519
530
543
555
560
563
565
566
569
578
587
597
607
609
604
591
575
556
539
524
514
505
499
491
480
471
461
452
450
452
460
471
483
490
493
494
490
489
489
493
497
504
512
517
517
514
508
501
499
499
503
508
515
518
516
512
507
501
497
497
502
509
518
523
523
520
515
508
506
507
511
517
523
526
527
521
516
509
507
508
511
517
523
526
525
519
514
507
504
505
509
515
521
525
523
520
517
513
512
515
519
524
531
532
530
526
521
514
511
512
515
522
528
531
529
526
521
519
514
517
521
529
536
538
535
531
525
518
515
517
521
527
534
535
531
525
517
510
506
511
513
519
525
529
527
524
518
511
506
505
507
512
518
522
521
517
511
503
499
499
500
506
512
515
513
509
503
497
495
496
501
506
513
516
515
511
505
497
495
496
500
507
514
518
516
512
505
499
496
498
502
508
515
516
514
510
504
497
494
496
501
508
514
518
516
512
506
499
496
497
503
508
515
517
515
510
503
497
495
497
502
508
515
519
515
511
504
498
495
498
503
509
515
517
516
511
504
497
495
497
502
509
515
518
516
512
505
499
497
499
505
510
516
518
516
511
505
498
497
499
504
510
517
519
517
514
508
501
499
499
505
510
516
519
518
514
508
502
500
502
505
512
519
520
518
514
507
501
498
500
502
511
518
519
517
513
508
502
500
502
507
512
519
520
518
513
507
501
500
502
506
514
519
520
517
512
506
500
499
502
506
512
518
520
518
515
508
503
501
503
508
514
520
522
520
516
509
503
501
503
507
514
520
522
520
515
508
502
500
502
507
513
520
522
521
516
510
504
503
505
507
515
520
523
519
515
508
503
501
503
508
515
520
522
519
514
508
502
501
503
508
515
521
523
521
517
510
504
501
503
507
514
520
523
521
516
510
504
502
503
508
515
521
521
521
516
510
503
503
504
509
515
520
522
520
515
509
503
500
505
512
521
528
531
528
523
517
510
507
510
514
520
527
529
527
522
516
511
508
511
514
521
527
530
527
525
520
515
513
514
516
520
526
527
524
519
513
508
506
509
515
522
525
525
520
513
507
499
499
501
506
513
518
519
518
513
507
501
499
501
507
513
518
520
518
514
509
502
501
503
507
514
520
521
518
513
506
503
504
510
517
528
539
547
553
556
557
557
562
572
583
596
607
611
607
598
583
565
550
537
526
518
510
500
485
475
463
452
449
453
457
467
477
484
487
487
485
483
485
491
498
506
513
516
513
511
505
499
497
501
505
512
517
518
516
512
505
500
498
501
505
511
518
521
520
517
511
506
506
509
513
519
524
525
522
517
510
505
505
508
512
519
524
526
523
519
511
505
505
507
514
519
524
525
523
518
512
509
509
513
519
526
532
533
529
525
519
511
510
512
517
524
530
532
529
525
519
514
515
518
523
530
536
537
535
529
522
517
516
519
523
530
535
536
532
527
516
509
506
508
513
521
526
528
525
520
514
509
506
506
508
513
517
518
515
511
504
500
497
499
501
507
511
512
510
506
500
495
494
497
501
508
512
514
511
506
500
495
493
496
502
507
513
514
511
507
500
495
495
499
504
511
516
517
513
511
503
498
496
499
504
511
516
516
514
510
503
498
498
501
506
513
518
518
516
510
502
497
496
500
501
512
517
518
515
510
503
498
495
499
504
511
517
517
514
510
504
499
498
502
507
513
519
519
516
512
504
499
498
501
506
513
518
518
516
511
504
499
498
503
505
512
517
518
515
511
504
499
496
501
505
512
517
519
516
512
505
501
499
501
506
513
518
518
516
511
505
500
500
504
508
518
520
520
517
512
505
500
499
503
508
515
520
521
518
512
505
500
499
502
507
515
520
520
516
511
504
500
499
503
508
516
521
522
518
513
506
501
501
505
510
517
523
523
520
515
508
502
502
504
510
517
521
521
518
513
506
502
502
505
509
516
521
521
518
514
507
502
503
505
510
517
521
522
519
514
506
503
501
504
509
517
522
523
521
517
509
504
504
506
512
519
524
524
521
516
508
503
505
505
511
519
523
524
522
517
510
504
504
506
512
519
524
523
520
515
509
504
504
507
512
519
523
524
521
515
509
504
504
508
514
523
529
530
527
521
514
509
508
512
518
524
528
529
525
520
514
510
510
513
519
526
530
529
525
520
515
513
515
516
520
525
527
527
524
519
512
508
507
511
516
522
527
523
520
513
505
499
499
502
509
517
521
521
518
513
506
501
502
505
511
517
521
521
517
512
505
501
501
505
511
517
522
521
518
514
507
503
505
510
517
527
536
542
545
547
548
551
558
568
579
593
604
609
608
601
589
575
562
552
543
534
523
510
494
479
464
455
452
454
458
467
475
480
481
481
479
480
483
490
497
506
512
512
510
507
501
498
499
502
507
514
518
518
514
509
503
499
499
502
507
513
517
518
518
515
509
506
506
511
514
522
525
525
522
516
509
505
505
509
513
520
524
525
521
516
509
505
504
508
513
519
523
523
519
514
507
505
508
513
520
527
530
531
526
521
515
512
515
516
521
527
530
530
525
520
513
509
512
517
524
532
536
535
531
526
518
514
515
519
525
532
536
535
531
523
514
509
508
511
517
524
528
527
524
518
511
507
507
510
514
519
521
519
517
511
504
500
500
503
505
511
513
511
507
503
497
495
496
499
505
512
517
516
512
506
499
495
496
499
505
512
515
515
512
507
500
496
497
501
505
513
516
516
512
507
501
497
497
501
507
514
516
516
512
507
499
496
496
501
506
513
517
516
512
507
499
496
499
502
508
515
518
517
513
508
501
497
499
502
507
514
518
516
511
507
501
497
498
503
508
514
518
517
513
508
501
497
499
502
508
515
519
518
515
508
501
498
499
502
507
514
517
517
513
508
501
498
499
503
509
516
519
519
515
511
505
501
501
504
510
517
520
519
515
510
503
500
501
505
511
518
522
521
517
511
504
500
501
506
511
518
521
520
516
510
503
500
501
505
511
517
520
518
515
510
504
501
502
506
513
518
521
520
515
511
505
500
501
506
511
518
520
519
514
510
503
500
501
504
510
517
520
518
515
509
502
498
502
506
512
