515
510
503
497
495
497
498
497
496
496
497
497
497
499
499
499
501
501
502
502
500
501
502
503
503
504
502
503
503
504
507
508
511
510
502
503
501
509
574
534
453
491
501
500
511
506
506
513
510
518
518
509
506
498
495
497
496
497
499
499
498
499
500
501
500
501
500
500
501
503
502
502
503
504
504
503
502
504
504
506
510
510
514
510
499
503
502
506
567
546
452
488
500
499
507
505
504
512
510
515
516
507
507
499
495
496
495
496
499
498
497
499
499
500
497
500
500
500
501
501
501
501
502
502
503
503
504
504
503
503
514
511
516
509
501
504
503
505
561
556
450
485
500
499
505
506
504
511
513
513
517
507
508
500
493
495
494
497
497
497
496
499
498
498
499
500
500
500
499
501
501
502
503
502
502
502
502
503
502
504
511
511
512
509
502
502
502
504
555
567
454
481
500
503
508
504
504
508
512
511
517
508
509
502
494
496
495
496
498
496
498
499
499
499
501
498
499
499
500
500
504
503
503
501
503
502
502
503
501
504
511
511
513
511
502
504
502
504
551
576
457
480
500
500
508
507
506
508
510
512
516
512
508
501
494
495
497
496
498
497
496
498
498
497
497
500
501
502
502
502
503
503
503
502
505
502
503
502
501
503
509
511
510
509
501
499
503
502
543
586
462
474
498
497
505
506
505
505
512
510
518
514
509
500
493
495
496
497
497
495
499
496
499
499
499
500
499
500
501
502
500
502
501
503
501
503
502
503
502
504
512
510
509
508
504
501
502
502
536
589
469
471
499
497
506
506
507
506
513
512
519
516
507
502
493
495
495
496
496
496
498
498
497
498
500
500
501
501
502
501
502
502
502
503
502
503
501
503
503
503
511
509
510
508
504
501
501
503
531
590
476
466
496
497
502
504
505
505
512
511
519
514
508
500
492
498
496
500
497
499
498
498
498
497
499
500
500
499
501
501
500
502
503
503
503
502
503
504
505
504
512
510
509
509
506
503
504
503
524
588
488
462
494
497
500
507
505
504
513
512
517
515
507
499
494
496
496
495
498
497
496
498
498
499
500
501
500
498
499
499
501
501
501
500
502
502
502
505
504
502
509
509
510
509
509
502
501
501
519
588
499
458
493
497
500
506
506
506
514
513
519
517
509
500
493
495
493
495
497
497
498
500
498
500
501
500
502
503
501
501
501
502
502
502
503
503
502
502
504
502
508
509
510
510
508
502
502
502
514
582
510
456
492
498
497
504
506
504
515
512
517
515
507
504
495
495
496
496
497
497
498
499
500
501
497
501
502
501
502
502
503
502
502
503
503
502
504
503
504
504
509
512
510
511
509
499
502
502
511
578
527
452
494
499
500
508
507
506
515
512
517
516
508
503
495
495
495
497
497
500
500
498
498
499
500
500
499
501
500
501
500
502
502
503
501
502
503
502
501
504
504
509
511
515
510
501
503
503
509
571
537
450
496
499
498
507
504
506
512
511
518
517
506
507
500
495
495
496
498
499
497
502
500
498
500
499
502
500
503
502
504
503
503
502
502
503
502
501
503
503
506
511
512
514
508
501
502
503
507
566
551
452
487
500
499
506
507
506
512
512
514
518
508
509
501
495
495
495
495
496
497
501
499
499
500
499
501
502
501
501
500
501
500
502
503
502
502
503
502
503
504
512
511
515
510
504
505
505
506
560
560
451
485
500
502
511
509
506
511
514
514
517
508
506
500
494
495
496
495
497
499
499
499
499
498
500
501
500
499
500
502
502
502
501
503
503
503
504
503
506
503
512
512
515
508
502
502
504
504
553
572
456
484
500
501
508
507
507
508
514
513
519
512
511
502
495
494
495
495
497
497
497
496
498
498
499
499
499
501
501
502
501
503
502
502
502
504
504
504
504
502
510
508
511
510
502
502
500
501
548
580
459
478
499
499
506
506
507
506
511
511
518
512
508
499
493
494
495
496
497
497
499
499
501
500
499
499
500
502
500
500
502
501
501
504
502
503
504
503
504
505
512
509
510
507
503
502
502
503
540
587
465
476
499
499
507
506
503
504
512
510
516
513
507
499
493
496
495
498
497
498
497
499
500
501
502
500
500
500
502
501
500
501
501
500
500
502
501
503
505
504
509
508
509
507
503
502
503
502
533
590
473
470
498
500
504
506
505
503
513
512
519
515
509
501
492
493
496
496
494
498
497
498
498
498
498
498
500
499
500
499
499
501
502
502
504
503
503
504
505
503
512
509
511
508
505
502
502
503
528
590
483
466
496
498
503
506
506
504
514
513
519
517
509
500
493
495
496
496
497
497
496
499
498
500
499
499
501
498
499
501
501
500
500
502
502
504
505
505
505
505
512
510
509
510
509
502
502
502
521
588
491
461
495
499
501
506
509
506
514
511
519
516
510
501
496
496
496
492
496
496
496
498
498
497
499
502
500
499
501
499
499
501
501
501
503
500
503
501
502
504
510
508
508
507
509
502
503
503
516
584
504
456
492
499
498
506
505
505
512
511
518
516
507
500
495
495
495
495
497
495
498
498
499
501
500
501
500
501
503
502
504
501
502
503
503
504
502
502
503
502
508
510
508
511
509
500
502
502
512
579
517
453
492
499
500
507
505
505
511
511
518
516
507
501
495
494
497
497
498
498
498
498
498
500
501
499
500
500
501
499
500
500
501
501
501
503
503
503
504
503
507
510
510
513
511
503
502
501
510
575
530
452
491
501
499
506
506
506
511
512
515
515
508
504
497
495
495
497
497
496
499
497
497
496
497
499
502
501
501
501
501
503
501
500
502
501
502
504
503
503
506
510
512
513
511
500
502
502
508
570
543
451
488
501
499
506
506
506
513
511
515
517
507
507
499
494
494
494
495
497
497
495
496
497
499
499
500
500
499
499
502
501
501
501
502
506
501
500
502
503
503
508
509
513
507
503
502
503
506
564
553
450
484
498
498
506
505
504
510
510
513
517
509
507
501
494
495
496
494
497
496
498
497
498
499
501
499
501
501
500
501
503
502
501
503
503
501
503
503
504
503
510
510
515
508
500
502
503
503
557
566
453
484
499
498
506
506
505
508
513
514
518
510
508
502
494
495
496
496
496
497
496
497
498
498
500
499
500
501
500
502
503
502
502
501
504
503
505
504
505
504
509
509
513
509
501
503
503
502
553
576
457
480
499
498
507
505
505
506
512
512
517
511
509
501
495
494
494
495
496
496
498
499
498
498
500
500
499
499
499
502
500
502
502
501
502
503
503
504
503
507
511
512
513
508
502
503
503
502
544
583
461
476
499
499
505
507
507
508
514
512
517
513
509
497
491
494
496
496
497
497
499
499
499
496
499
500
499
501
501
501
505
503
502
503
502
503
505
504
502
496
511
510
509
508
502
502
502
502
539
590
468
473
496
499
504
505
505
507
513
512
519
515
509
499
496
497
496
496
498
499
497
498
500
497
500
503
499
500
501
501
502
502
503
502
502
502
502
503
504
501
510
509
510
506
503
500
500
503
532
591
474
467
497
499
503
506
506
507
514
512
519
518
511
502
496
495
497
498
498
499
498
499
497
497
498
499
501
498
501
502
503
503
501
504
504
503
503
502
503
503
511
510
511
510
507
503
503
504
527
591
486
464
497
499
502
506
507
505
512
512
518
515
507
499
493
493
495
496
496
497
499
499
498
499
500
499
500
502
498
500
502
501
502
502
502
504
505
502
505
505
511
509
511
509
507
501
503
503
521
589
497
461
493
497
498
504
504
504
515
510
519
516
508
500
493
494
495
495
495
497
496
497
498
499
499
499
499
500
500
501
500
502
500
502
502
503
503
502
503
502
511
509
508
510
508
502
502
502
515
583
507
455
494
499
498
506
508
506
514
511
520
518
510
503
497
496
498
497
499
496
499
497
499
498
499
501
500
501
502
503
502
502
502
502
502
503
504
504
504
504
509
511
508
511
509
500
502
503
511
579
522
451
492
499
499
504
504
506
512
510
517
515
507
503
494
495
494
492
494
495
494
497
497
498
499
498
498
500
502
500
502
500
501
502
501
502
501
504
503
502
505
511
510
513
510
501
502
500
510
573
533
450
491
498
499
505
505
506
514
513
518
516
509
505
498
494
495
495
496
497
498
500
499
499
499
499
499
500
500
500
501
501
503
502
503
502
503
503
505
503
503
508
511
515
508
499
501
502
507
567
544
451
489
498
499
506
506
506
510
511
516
514
505
507
498
495
495
497
496
497
497
498
498
500
498
499
499
501
501
500
500
502
501
502
502
502
501
502
504
503
503
510
510
515
508
498
502
502
507
562
556
450
483
499
499
507
508
506
510
512
513
515
508
510
501
494
496
496
496
498
497
498
499
498
500
499
500
499
502
499
501
501
503
501
501
502
502
501
502
502
503
510
511
513
508
501
500
501
504
556
568
453
480
499
498
508
505
505
507
510
510
515
508
507
501
495
495
495
496
496
498
499
499
498
499
500
500
500
500
499
502
502
500
502
503
501
502
501
502
503
503
511
510
512
509
501
503
503
504
550
578
457
479
500
499
508
505
503
506
512
511
516
510
509
501
494
496
498
496
499
497
497
497
497
498
499
499
499
499
501
500
499
501
503
505
504
502
505
505
504
504
511
510
513
509
501
503
503
502
541
586
461
476
499
500
507
504
504
504
510
509
516
511
507
502
492
494
496
495
496
496
497
498
498
498
499
501
500
501
500
500
501
503
501
501
503
503
503
505
504
504
511
510
510
508
503
502
501
500
537
591
469
472
499
498
506
505
506
505
511
511
516
514
510
500
496
497
496
496
498
498
497
497
499
498
498
499
500
500
499
499
502
499
500
503
503
502
501
502
503
500
512
508
509
508
504
501
501
502
530
590
478
467
497
498
503
505
505
507
512
510
519
517
510
499
495
496
495
497
499
498
498
500
503
499
498
498
499
499
499
500
502
501
501
502
502
503
503
504
505
504
512
511
508
508
506
502
502
502
524
588
486
462
496
498
501
508
506
504
512
511
518
516
507
500
492
495
496
498
495
495
496
498
499
499
499
500
500
501
500
500
500
500
501
500
502
501
503
502
502
502
511
507
509
510
508
503
503
504
519
587
500
460
496
497
500
505
506
506
514
510
518
516
506
500
495
496
498
496
496
497
500
497
497
499
499
499
500
501
499
504
501
502
502
501
503
502
503
502
504
505
510
510
509
510
508
501
500
502
514
581
511
455
493
497
500
506
504
504
512
510
518
516
505
500
493
496
495
494
497
497
498
498
498
499
500
500
500
500
499
502
502
502
502
500
501
503
502
503
504
503
507
509
510
510
507
500
501
503
511
577
524
450
491
497
498
506
507
507
514
511
518
516
509
503
496
495
495
495
496
498
499
499
497
498
499
500
499
500
500
502
500
502
501
503
501
503
504
504
503
503
505
511
511
513
509
502
500
504
508
571
537
450
489
498
499
508
507
505
513
512
517
514
503
505
500
494
495
495
496
496
497
498
498
500
500
500
498
500
500
500
500
501
500
502
504
503
503
504
502
502
505
508
509
515
510
499
501
501
504
565
545
448
486
498
497
506
503
503
510
508
513
517
507
508
500
494
495
497
494
498
498
500
498
500
499
499
500
497
501
501
500
503
503
501
502
502
501
503
503
504
503
510
509
513
508
500
503
503
506
561
560
451
485
500
497
505
504
504
509
512
512
517
508
506
500
493
493
496
497
498
498
498
496
499
497
501
500
499
500
500
500
499
500
501
502
500
502
502
503
501
501
510
509
513
509
499
502
501
501
551
572
454
482
500
499
509
507
506
508
511
511
518
510
508
500
494
495
493
496
496
497
498
499
499
499
500
497
500
500
499
501
500
503
502
502
500
503
504
504
502
504
511
509
513
506
498
501
500
500
548
578
457
477
497
499
507
506
506
504
510
510
518
512
508
502
495
495
495
498
496
497
497
500
498
501
500
500
499
501
502
499
500
502
502
501
502
503
502
504
502
504
512
510
511
509
500
502
502
501
542
588
463
475
497
498
506
505
504
505
511
511
519
513
509
500
494
492
496
496
496
496
496
497
499
499
497
499
498
500
501
501
501
501
501
499
501
505
502
503
501
501
510
508
506
506
502
501
501
503
536
590
471
471
501
500
505
507
507
506
512
512
515
514
508
499
494
495
494
495
496
494
497
498
498
497
498
499
499
499
499
502
499
501
503
502
502
502
503
501
505
503
512
510
509
509
505
501
498
501
529
591
480
466
498
498
502
503
505
506
514
513
519
516
509
500
491
494
496
496
495
497
497
496
496
495
498
500
501
500
501
501
500
504
499
501
502
502
502
503
504
501
513
507
508
507
505
502
502
502
525
589
489
463
495
497
499
504
507
506
512
509
517
515
507
498
493
494
497
494
495
497
496
498
499
499
500
499
499
498
501
501
502
500
502
502
502
502
498
503
502
504
509
509
509
509
506
499
501
501
519
588
502
459
496
499
499
505
506
506
515
513
520
515
508
499
496
495
495
497
497
497
499
498
495
498
498
500
500
500
500
500
501
501
503
504
502
502
502
501
502
502
507
510
508
510
507
501
502
501
514
579
513
454
492
497
497
504
503
503
512
512
517
516
508
500
496
496
496
496
495
496
498
498
499
499
499
498
499
500
501
501
502
505
501
503
503
501
504
503
504
504
506
510
508
511
509
502
503
501
510
575
524
452
491
499
499
505
504
505
512
511
516
516
506
502
497
496
497
497
496
497
497
497
498
499
500
499
499
499
500
501
500
501
502
502
501
503
503
503
502
503
504
509
504
513
510
501
501
501
507
569
539
450
490
498
498
507
507
505
512
511
515
517
508
505
499
494
495
495
498
496
496
496
498
498
497
499
499
499
501
500
500
501
500
502
502
501
502
502
501
501
504
509
511
512
508
501
500
502
505
565
552
450
485
499
497
507
507
506
512
511
515
517
507
506
502
495
495
496
497
497
497
496
498
499
499
500
499
499
499
500
501
499
504
502
503
506
503
502
503
504
503
511
510
517
510
502
505
503
505
561
562
453
485
499
498
507
505
504
508
510
512
516
507
507
499
492
495
495
496
497
498
498
499
498
499
500
501
500
499
500
501
501
502
503
502
505
504
504
504
506
504
510
511
515
510
503
502
501
503
553
573
453
481
500
499
507
507
506
506
511
510
517
511
507
501
496
496
497
497
495
496
495
497
498
500
502
501
500
499
502
502
504
504
503
502
501
504
503
504
503
503
512
509
512
508
503
502
503
503
547
580
459
477
499
498
507
506
505
506
511
511
517
512
509
499
496
497
496
496
497
498
497
499
497
498
499
498
500
500
500
501
502
501
503
502
501
503
503
504
505
503
511
509
512
509
502
503
504
503
541
587
465
473
500
499
505
504
506
505
512
512
519
513
509
499
494
496
496
497
499
498
499
498
499
500
500
499
501
501
501
502
500
500
503
503
502
503
504
503
504
503
512
510
511
508
503
502
503
505
535
591
472
471
498
499
505
507
507
506
512
511
518
515
509
501
495
495
497
498
500
498
498
497
499
498
499
500
501
501
500
502
500
503
504
504
503
503
504
502
501
502
511
507
508
508
504
502
501
501
526
592
481
465
496
497
503
506
507
505
513
513
520
517
509
500
495
496
497
497
496
498
499
499
499
501
502
501
501
500
502
503
503
502
502
505
503
502
504
503
503
504
511
510
512
508
507
503
502
501
522
588
491
461
495
500
503
506
508
505
514
511
519
517
510
501
494
494
496
497
496
498
497
498
498
499
498
500
501
504
502
500
502
504
503
504
505
504
504
502
503
504
509
510
510
510
508
502
503
503
518
586
503
458
492
497
499
507
505
507
513
511
518
517
508
502
495
495
496
498
498
497
499
501
499
498
499
497
500
502
502
499
502
500
502
501
503
503
504
504
503
506
509
511
509
511
512
505
502
505
514
583
514
452
492
499
502
507
505
506
513
512
514
518
508
500
495
496
494
496
497
497
499
499
498
498
499
501
500
501
500
503
503
502
502
505
504
504
502
503
503
506
508
513
512
514
511
502
502
504
510
577
529
451
494
498
500
505
506
506
514
511
517
517
508
505
497
496
499
498
498
499
499
500
501
501
502
501
502
501
503
503
504
501
502
503
503
504
503
503
504
504
505
510
511
516
512
503
503
504
508
569
542
451
490
501
500
507
507
504
511
511
516
516
509
506
500
494
497
496
497
498
498
499
498
501
499
499
499
500
501
501
502
501
501
503
503
504
503
505
505
504
506
512
511
517
510
503
503
503
506
565
556
454
488
500
500
509
507
507
512
513
514
517
508
506
501
496
497
498
499
498
500
498
501
501
502
501
502
502
501
502
503
502
502
505
502
503
504
506
505
505
503
511
512
517
509
502
503
504
503
558
563
454
484
500
502
509
507
508
509
513
515
521
511
512
503
496
499
498
498
500
498
499
499
501
500
500
499
501
502
501
504
502
503
503
505
506
506
505
505
505
505
513
511
517
509
503
501
503
504
555
574
456
480
502
499
509
507
507
508
513
512
518
512
511
503
496
498
496
499
496
498
497
499
498
500
501
502
501
501
502
503
504
504
504
504
504
505
506
504
503
504
512
511
514
510
503
504
503
501
547
583
461
478
500
500
509
507
506
508
513
513
518
514
511
503
496
495
496
498
498
498
499
498
498
500
501
501
502
503
504
501
502
501
503
505
504
503
504
504
505
504
515
511
512
510
505
503
504
505
541
589
468
473
500
500
507
506
506
506
514
514
520
515
510
501
496
497
496
498
497
495
499
499
501
500
502
503
501
501
502
505
503
505
504
503
504
504
504
504
504
504
513
513
512
509
504
504
502
504
534
591
476
471
499
500
505
505
509
508
513
512
519
516
509
502
495
497
496
498
499
496
498
499
500
503
501
502
504
503
502
502
503
503
504
503
502
502
503
503
503
501
511
511
509
507
505
504
504
505
528
591
487
465
497
501
504
507
505
506
513
511
520
515
509
502
495
498
497
497
499
499
499
501
500
502
500
501
503
503
502
502
502
504
505
505
505
503
505
502
504
505
512
512
511
511
511
505
504
504
523
589
495
460
495
500
502
506
505
507
515
514
519
518
509
501
494
496
496
496
496
497
498
499
499
499
499
499
500
500
501
501
504
505
503
503
504
504
503
503
504
506
511
511
511
510
510
502
503
501
515
586
506
457
495
500
501
506
506
507
515
512
520
517
508
502
496
495
497
498
496
497
499
499
498
499
501
501
502
500
502
502
502
501
501
502
503
505
503
502
505
504
507
510
512
511
511
502
501
501
511
579
518
453
492
500
499
506
505
505
514
511
518
516
509
502
497
494
495
496
498
498
498
501
499
499
498
500
500
500
501
502
503
501
503
501
502
502
503
504
502
504
506
511
511
512
509
502
501
501
509
573
530
451
491
499
497
507
505
508
513
512
519
518
510
505
497
495
495
494
496
497
496
497
498
499
501
502
498
501
502
501
502
500
501
501
505
501
504
502
503
504
505
510
509
516
509
502
504
502
508
569
545
450
491
501
497
507
506
505
510
512
515
518
506
507
499
496
496
496
497
495
499
497
497
499
500
500
499
501
500
504
503
503
503
503
502
504
503
503
505
502
505
510
510
516
509
499
501
502
505
564
556
451
483
498
499
507
506
505
510
512
515
517
507
507
502
495
496
496
496
497
498
498
497
500
500
501
500
500
499
500
502
501
501
504
501
503
503
503
502
502
503
511
511
516
508
500
502
504
505
556
567
454
482
496
496
505
504
503
508
511
514
515
506
507
501
495
495
495
495
497
497
498
500
497
499
498
500
500
501
500
501
500
503
503
503
503
503
506
504
503
503
510
510
512
506
502
502
503
502
551
576
458
479
498
499
507
505
507
505
510
511
515
509
508
502
495
496
496
497
496
497
496
499
500
500
499
500
500
502
501
502
501
503
501
501
501
503
501
503
504
505
511
509
510
507
500
502
502
501
546
584
459
475
499
499
506
506
505
506
511
510
518
512
508
500
495
495
495
497
495
495
500
499
499
499
500
501
503
501
501
501
501
502
501
502
502
503
503
503
503
504
512
511
512
509
505
505
505
503
538
589
468
471
499
501
507
506
505
505
512
510
516
514
509
501
493
494
496
496
496
497
497
499
499
499
500
500
499
499
501
501
503
502
501
503
503
503
503
504
502
504
511
510
509
508
503
503
501
503
533
590
474
469
499
498
502
506
505
508
513
511
518
515
506
500
496
496
498
497
499
498
499
499
500
500
500
502
500
502
502
501
504
502
502
502
504
503
504
502
505
505
512
510
509
509
506
503
503
503
526
590
486
463
497
498
502
507
507
505
513
512
518
517
508
500
494
496
497
497
497
500
499
497
497
500
501
500
502
502
502
503
501
503
502
502
502
504
504
504
505
502
512
510
510
509
507
501
503
502
519
590
495
459
496
499
500
506
505
506
514
512
519
515
508
501
493
495
496
497
497
497
498
499
500
500
500
501
502
501
503
501
501
502
503
503
503
503
503
504
503
504
511
509
511
510
509
503
501
501
516
584
509
457
494
500
496
507
507
508
515
511
521
517
508
501
493
495
496
496
496
498
497
498
498
499
500
500
502
502
503
500
502
503
502
503
503
503
505
506
504
505
508
511
510
514
510
503
506
504
512
580
521
454
494
499
501
507
506
507
514
513
519
517
508
504
498
495
495
496
496
497
498
498
498
501
500
501
501
501
501
502
502
502
506
503
502
503
503
503
502
504
507
511
508
511
507
502
502
502
508
574
534
450
491
499
499
506
507
505
514
511
515
517
508
505
500
496
495
496
498
497
498
499
499
500
500
501
500
504
503
502
500
502
502
503
504
508
505
505
504
504
507
511
509
517
510
504
503
503
509
569
546
453
490
501
502
508
506
507
512
512
515
517
508
507
500
494
497
496
497
496
497
499
498
500
501
499
501
499
500
500
499
501
502
502
501
502
503
501
504
505
504
510
508
516
508
502
502
504
505
564
558
451
487
498
498
506
506
504
511
511
513
515
507
507
500
495
495
497
498
495
498
497
497
499
498
498
501
502
502
503
504
502
501
502
503
505
503
502
502
502
504
511
510
515
510
500
503
502
506
557
567
453
482
500
498
508
505
506
509
513
514
519
511
509
502
495
496
496
496
495
498
499
497
498
498
498
499
500
503
500
503
504
503
502
502
501
501
501
503
503
504
508
509
512
507
501
501
503
502
550
575
454
477
499
498
506
507
507
508
510
512
516
511
509
500
494
496
496
500
498
499
500
499
498
498
500
501
500
500
498
501
501
503
503
502
501
503
502
502
502
502
513
510
514
509
502
502
504
502
544
583
459
477
499
499
506
507
507
505
513
511
518
512
508
502
494
494
497
497
496
497
496
499
498
498
499
499
499
500
502
501
502
501
500
502
502
503
503
503
502
503
511
509
509
508
503
503
502
503
539
590
469
473
498
498
505
505
506
506
513
510
519
513
507
500
495
495
496
496
497
497
498
499
498
500
499
500
500
499
501
500
501
501
503
503
502
503
503
504
504
504
512
509
507
507
502
500
500
500
529
589
476
467
495
497
502
507
504
506
513
513
518
514
508
500
493
495
496
497
498
498
498
497
497
497
498
500
502
501
501
502
502
503
503
503
503
502
502
500
503
502
510
510
510
507
507
502
502
504
528
589
487
463
497
499
505
507
505
504
513
510
517
516
508
500
494
496
497
496
496
498
499
499
500
500
499
500
500
502
502
500
502
503
503
502
501
502
504
503
503
503
511
510
510
509
506
501
501
502
519
587
496
458
495
498
500
506
507
506
513
511
517
516
508
499
495
496
496
497
495
496
496
497
497
498
500
498
502
500
500
501
501
502
502
502
502
504
503
502
504
502
510
510
512
512
511
502
502
503
516
584
508
455
493
499
499
506
507
505
513
511
518
516
508
500
494
496
496
497
497
498
498
500
500
500
499
500
502
502
502
502
502
501
503
503
504
502
504
504
504
504
509
511
512
512
510
502
503
503
513
578
520
452
491
499
499
507
506
507
514
512
518
516
508
502
495
495
496
496
497
498
497
497
500
498
500
502
500
502
500
502
501
502
504
503
506
504
503
503
504
504
506
509
511
514
509
502
504
504
508
573
534
452
491
500
499
508
506
504
513
511
518
519
507
505
498
494
497
498
498
498
499
497
499
501
499
499
501
501
500
502
502
502
502
502
503
503
504
504
505
504
506
512
511
516
510
500
503
505
506
568
547
451
488
499
502
508
508
506
513
513
517
517
508
508
502
498
499
497
499
499
497
497
499
500
502
501
500
502
504
503
505
504
505
504
504
504
505
503
503
504
505
511
510
514
509
501
503
504
506
560
557
451
486
501
501
509
507
507
511
512
514
517
508
508
502
495
496
497
497
499
498
499
500
500
500
501
502
502
503
502
502
504
504
503
504
504
504
504
505
504
506
512
512
515
509
501
502
503
504
557
571
453
483
502
500
508
508
508
508
513
512
517
511
509
501
495
498
497
503
499
500
500
499
500
501
502
500
502
502
502
503
503
503
502
505
505
503
503
506
505
505
513
514
514
510
503
504
503
503
550
578
459
481
502
501
512
507
509
508
514
515
519
512
510
503
496
496
496
499
498
498
501
500
500
501
500
501
502
503
504
503
504
503
502
504
504
504
503
505
504
505
513
512
514
510
501
502
505
504
544
585
464
478
501
499
507
507
507
508
513
513
519
515
511
502
497
498
498
499
500
498
498
499
500
502
502
503
502
504
503
504
503
504
506
505
504
507
507
507
506
504
513
512
511
509
505
504
504
505
539
592
472
475
501
502
509
508
509
507
514
514
521
519
513
504
498
498
500
498
499
500
501
501
501
504
502
502
503
503
503
505
506
506
505
505
505
506
505
505
505
505
515
515
512
512
508
506
505
505
533
594
481
471
500
502
507
508
508
509
516
513
520
519
511
504
496
497
499
499
499
501
499
500
501
503
501
503
504
503
505
505
507
505
507
506
506
506
506
507
505
506
514
512
514
513
512
508
508
508
528
593
490
466
498
501
503
508
509
508
516
516
523
522
513
506
499
501
499
500
502
500
502
501
502
503
505
505
505
505
505
505
506
508
506
504
507
506
505
507
507
509
515
514
513
513
513
507
507
507
524
590
504
461
497
502
502
510
510
509
519
516
524
522
513
506
499
500
499
502
504
502
503
504
504
505
505
505
505
505
506
507
507
505
508
507
507
508
508
508
507
507
514
515
514
515
514
507
507
506
519
590
517
458
497
503
505
511
509
511
519
518
523
521
512
505
500
500
501
502
504
502
503
506
504
505
506
506
504
507
506
506
507
507
507
510
510
509
510
509
508
508
513
515
517
517
515
509
507
508
517
582
526
457
498
505
505
513
513
513
521
519
525
523
514
509
503
502
502
503
503
504
505
505
504
504
504
505
505
507
507
507
508
509
508
508
508
508
510
511
509
509
511
515
516
520
515
509
510
511
515
577
543
456
498
508
506
514
512
514
518
516
520
521
514
513
506
504
503
502
504
504
505
505
506
506
507
506
507
509
510
510
510
509
509
511
509
510
511
511
511
511
511
517
518
522
516
509
508
509
515
575
557
459
495
506
509
515
513
515
519
520
523
523
517
516
508
504
505
505
506
506
509
506
507
505
507
508
508
507
509
509
510
509
511
510
511
512
512
512
510
511
513
519
517
522
515
508
511
509
513
568
567
459
494
509
508
516
515
515
518
520
522
524
515
516
509
504
504
504
505
506
506
507
508
507
508
509
509
509
507
509
509
510
509
511
511
511
510
511
511
514
512
520
520
523
518
509
511
512
513
564
580
464
491
509
508
516
514
512
518
522
522
527
521
518
510
505
505
505
508
506
507
506
508
509
509
510
510
511
505
510
511
511
511
511
513
512
514
512
511
513
515
521
519
524
516
512
512
512
514
559
588
466
488
507
510
517
517
514
515
526
520
527
520
519
510
504
506
505
507
506
507
507
507
508
511
511
510
510
511
511
510
512
511
511
512
511
513
512
514
515
514
522
520
521
519
510
513
512
512
553
598
473
486
511
510
518
517
518
519
522
522
527
524
519
511
504
507
508
506
507
509
511
508
512
511
511
509
510
509
511
512
513
512
512
512
513
514
513
514
520
514
523
521
520
521
514
513
515
515
547
602
481
483
510
508
515
517
516
514
523
521
527
525
520
509
505
507
507
507
507
510
509
508
509
510
508
511
512
512
512
512
512
513
514
512
514
515
515
514
515
516
524
521
521
520
517
515
514
515
541
605
491
479
508
510
514
516
515
516
524
522
529
527
520
510
504
506
508
508
507
508
509
509
511
511
511
512
512
513
514
514
513
513
514
513
516
515
516
516
515
515
523
522
522
521
519
515
515
513
535
600
501
474
508
510
513
519
518
519
526
524
532
529
520
511
507
508
509
508
508
511
510
511
510
515
511
512
512
513
512
512
512
514
516
514
514
514
515
515
514
516
523
521
523
522
520
515
514
515
530
599
512
470
507
511
511
518
518
517
524
525
532
530
520
513
506
506
508
508
509
512
510
511
510
511
512
512
513
514
512
512
512
513
513
515
515
517
517
517
517
516
523
523
522
523
522
514
516
515
527
593
525
466
505
513
513
519
518
519
526
525
530
529
520
514
508
508
509
509
511
512
511
512
512
511
511
514
512
512
514
515
513
514
514
516
514
516
516
516
514
517
519
523
522
526
523
516
515
518
525
590
539
466
507
513
516
521
521
519
525
525
532
529
521
517
509
508
507
509
511
510
511
511
512
513
515
512
513
515
515
519
515
514
516
516
516
516
517
519
518
516
520
524
524
528
524
515
515
516
523
585
551
466
505
511
513
521
520
520
527
527
530
532
522
521
514
508
510
511
511
512
512
512
513
513
515
513
514
515
515
515
515
515
516
517
517
518
518
518
517
518
519
526
524
530
523
516
517
518
521
579
563
465
502
514
515
523
520
520
526
527
528
531
524
521
514
512
510
512
512
512
512
512
513
514
515
515
514
516
518
517
517
517
518
518
519
515
518
519
522
521
519
527
526
531
525
518
518
518
521
573
577
469
502
515
514
524
524
524
526
528
529
533
524
523
518
511
512
512
513
511
513
513
513
513
515
515
517
517
517
520
517
518
518
518
519
518
520
520
520
521
520
529
527
531
526
518
519
518
520
572
590
471
499
516
516
524
522
522
524
529
530
535
528
526
517
512
514
515
514
516
516
515
516
517
517
517
516
517
518
518
518
520
519
519
519
519
519
521
522
521
523
527
527
530
524
519
521
519
520
566
599
474
494
515
515
524
524
523
524
528
527
534
528
524
518
512
512
514
513
515
515
517
516
517
518
518
518
520
520
518
518
521
520
519
520
519
520
520
522
522
522
528
529
530
528
521
519
521
520
561
608
484
494
519
517
525
527
525
525
533
532
537
533
527
519
512
514
516
516
515
515
518
516
517
518
517
518
518
518
520
521
520
521
521
520
520
522
522
522
521
522
531
528
530
528
521
520
523
522
555
610
491
489
517
519
524
524
524
524
530
528
536
534
529
519
512
514
514
515
516
517
515
517
519
519
520
519
518
519
519
518
520
521
521
522
521
521
522
521
522
522
531
528
528
526
522
521
521
521
548
610
499
485
515
517
521
524
525
524
530
527
537
536
526
519
511
515
515
515
516
516
515
518
518
518
518
517
520
521
521
522
521
522
520
521
520
522
523
522
523
522
530
528
528
526
524
521
520
520
541
610
510
480
514
519
521
526
525
524
530
528
537
535
527
518
512
513
512
515
515
517
515
516
517
518
516
518
518
516
516
518
519
518
519
519
521
520
522
521
523
521
528
528
528
527
526
521
521
520
536
604
520
474
511
518
518
524
525
524
531
528
536
531
525
518
510
512
513
512
515
513
513
513
515
516
517
515
519
518
517
516
519
520
521
521
520
521
520
520
520
521
526
527
528
526
526
517
518
520
529
597
530
472
509
515
517
523
522
523
530
528
538
534
523
517
511
511
511
513
513
513
515
515
515
512
514
516
515
515
516
517
517
517
517
518
518
517
518
518
519
521
524
526
525
527
525
517
518
516
523
589
543
467
507
515
514
522
522
521
527
526
532
532
523
517
513
511
511
512
512
512
512
513
514
514
515
515
514
517
516
515
517
517
516
519
517
519
518
517
519
518
520
524
525
529
524
516
517
515
521
585
553
464
504
512
513
520
518
519
526
527
530
530
520
519
512
508
509
510
510
512
510
511
511
510
512
512
512
514
513
514
513
515
514
514
514
515
518
517
518
518
518
524
524
528
521
515
515
516
521
579
564
463
500
512
512
520
517
519
524
524
526
529
519
519
511
506
507
509
508
507
511
510
511
511
511
512
512
513
512
513
513
514
513
514
514
515
515
514
515
516
516
522
521
528
520
512
515
513
515
570
574
464
496
511
511
520
517
518
522
522
522
527
520
518
511
506
508
508
509
510
510
511
512
511
512
513
513
512
512
513
513
512
512
513
514
513
514
514
515
514
513
520
520
523
519
510
512
512
513
562
582
465
491
511
510
518
518
515
518
521
520
527
520
518
511
504
504
505
506
508
509
509
509
511
510
511
509
512
512
511
514
513
511
511
512
512
512
511
510
511
512
519
522
521
518
510
512
511
513
558
593
469
486
508
507
517
515
516
516
521
521
527
521
517
511
503
504
506
505
506
505
507
507
507
506
508
508
508
510
510
510
511
512
510
510
510
509
511
512
513
514
519
518
519
518
509
512
511
511
549
594
472
479
506
505
514
514
515
514
521
521
526
521
518
508
500
503
502
505
503
504
506
505
507
507
509
509
509
508
509
509
509
510
508
511
510
510
510
509
510
510
519
518
518
517
511
510
511
510
543
600
479
476
507
506
512
513
512
512
521
518
525
522
515
505
499
500
501
503
503
506
505
506
504
504
506
506
506
506
509
510
511
509
509
510
509
510
508
510
510
509
517
518
517
515
512
509
509
507
535
599
489
472
503
504
509
512
511
511
519
518
525
521
515
507
499
502
501
503
501
503
506
505
505
506
506
506
506
507
507
507
506
508
509
506
508
510
510
510
510
509
517
515
514
515
513
509
508
508
528
594
499
467
501
503
506
511
511
511
518
518
524
522
514
506
500
503
503
505
504
504
505
504
504
505
503
504
505
506
507
508
507
507
508
508
509
508
508
510
510
507
514
513
515
515
513
507
505
508
523
589
508
462
498
505
505
511
510
512
521
518
524
523
513
507
500
499
499
502
502
502
503
504
504
505
505
506
508
508
508
508
507
507
508
508
507
508
509
509
507
509
512
517
518
515
514
507
506
508
519
585
520
458
498
504
505
513
512
511
518
518
525
522
514
508
502
501
503
501
502
504
505
504
504
505
504
505
505
506
507
508
506
508
508
509
509
510
509
509
508
509
513
516
517
517
515
508
508
509
515
581
535
457
498
506
506
513
511
511
521
519
525
524
515
510
503
501
500
502
503
503
503
504
505
505
506
507
507
506
507
508
508
508
509
510
511
510
511
510
511
510
510
516
516
520
515
507
508
508
513
576
546
454
496
506
506
513
512
513
519
519
522
528
514
512
506
501
500
501
504
504
505
505
505
507
507
507
508
509
507
507
508
510
510
509
509
509
508
509
510
507
511
516
517
522
516
506
509
507
511
571
558
456
491
504
506
513
512
511
516
517
520
523
513
512
507
500
502
502
503
502
504
504
505
504
504
505
507
507
507
508
508
508
510
511
509
509
510
508
509
510
511
517
519
521
515
507
509
511
510
565
570
459
491
506
504
515
513
512
516
518
518
525
516
514
509
501
500
502
504
503
504
505
505
505
505
506
506
507
508
508
507
509
506
509
508
508
508
508
509
510
510
515
517
520
516
507
507
507
507
556
580
461
485
504
503
512
510
512
512
517
519
524
515
514
507
502
501
502
501
502
502
502
504
506
503
505
505
507
507
508
508
508
509
509
510
509
507
509
510
511
511
519
517
517
514
507
507
506
508
554
588
466
482
503
503
512
511
513
511
516
518
525
519
514
505
498
502
502
502
502
504
502
504
504
505
505
505
507
504
505
507
506
507
508
508
508
508
508
509
509
508
515
514
515
511
506
505
508
505
545
592
472
477
504
503
511
511
510
510
517
516
523
516
514
506
500
501
501
501
505
503
504
504
504
505
504
506
504
507
509
507
508
507
508
509
510
507
508
507
508
509
515
514
514
512
507
507
507
510
539
594
477
474
502
501
508
510
510
512
517
516
523
518
515
503
497
498
500
501
502
499
502
502
503
503
506
504
504
505
506
503
504
503
505
506
507
507
508
506
509
508
516
514
515
511
510
507
508
508
532
595
486
470
501
504
505
510
508
509
517
515
521
521
511
503
497
500
500
501
501
501
502
504
503
503
503
502
505
505
507
504
504
503
506
506
507
506
506
506
507
506
514
513
514
511
511
504
504
506
524
591
495
463
496
502
503
509
507
507
516
515
523
519
510
503
496
497
497
498
498
499
499
499
501
502
501
501
503
502
503
504
504
503
504
506
508
507
508
507
509
507
515
512
512
511
512
505
505
506
519
588
506
459
496
500
500
508
508
509
516
514
521
518
510
503
496
497
497
498
498
499
498
499
500
501
500
502
500
502
502
503
503
504
504
504
504
503
505
507
506
506
512
513
513
514
512
505
505
506
516
584
520
456
494
502
501
508
505
505
514
513
519
516
509
503
495
497
495
497
497
497
498
499
501
502
501
503
503
503
501
502
503
503
504
504
505
505
503
505
504
504
508
511
511
514
511
503
505
505
511
575
529
453
493
501
501
506
509
508
514
512
518
517
508
505
499
497
498
497
499
497
497
497
497
499
500
500
502
500
501
502
501
501
502
502
503
504
504
503
506
505
506
510
509
514
509
503
502
503
508
571
543
450
489
499
499
507
505
506
512
512
516
517
509
507
499
495
496
497
497
497
498
499
497
499
498
499
500
502
500
500
501
502
502
502
502
503
502
502
502
504
504
510
510
516
508
501
503
501
506
565
555
452
485
499
498
506
505
504
510
511
514
517
510
511
501
495
497
496
496
497
498
498
500
499
501
502
501
502
502
503
502
502
504
503
500
503
502
503
503
502
502
509
510
515
510
499
503
501
504
556
565
454
482
500
499
507
503
505
507
510
511
516
509
508
499
494
496
496
497
496
496
498
498
497
497
500
498
499
500
497
500
501
502
500
503
503
505
505
503
504
502
511
510
513
509
500
501
501
502
551
574
455
480
499
500
508
505
504
504
511
510
516
514
510
500
496
495
495
497
497
497
501
499
498
499
499
501
500
501
500
503
502
503
502
501
501
501
502
501
502
503
511
511
511
510
500
504
502
502
545
583
460
474
499
498
506
503
506
505
511
510
517
512
510
501
494
495
496
496
495
498
499
497
499
498
500
500
500
500
500
500
501
502
503
503
501
505
504
503
502
503
512
508
511
508
502
502
502
502
539
588
466
472
497
499
507
505
505
505
513
511
518
515
511
500
494
497
497
496
496
497
497
498
498
499
499
499
500
499
500
500
500
500
500
502
500
502
503
503
502
504
513
510
510
508
505
503
503
504
534
591
476
470
498
497
505
507
506
507
513
511
517
514
509
501
495
495
496
498
498
499
498
499
499
499
499
500
501
501
500
502
501
501
501
502
504
505
505
502
504
505
513
510
510
508
507
505
503
504
526
591
486
464
497
501
503
505
506
507
514
512
520
517
510
500
492
496
495
496
497
499
499
498
498
500
500
500
502
503
503
502
504
504
503
505
504
504
502
504
505
506
514
511
511
508
507
501
502
501
521
588
497
462
497
500
501
508
507
509
515
512
519
516
509
502
496
496
497
497
497
499
497
499
499
499
500
504
500
502
501
501
504
502
504
504
504
502
504
504
504
505
511
512
511
512
510
505
506
504
517
586
508
458
494
500
499
508
507
508
515
512
519
518
508
503
495
498
497
497
499
498
500
500
501
501
501
501
501
503
503
503
502
503
504
505
505
505
505
506
507
506
510
513
513
512
511
505
504
505
514
584
522
455
495
500
501
507
506
508
516
512
519
518
509
505
498
497
497
498
500
501
501
501
502
501
503
504
503
503
505
504
506
507
505
505
504
505
506
506
506
506
507
513
511
515
511
506
505
506
512
577
537
454
495
503
501
509
508
510
515
515
520
520
512
508
501
497
497
497
500
501
502
501
501
502
503
503
504
505
505
503
505
504
505
506
505
506
507
507
506
508
506
514
513
518
513
504
505
507
512
570
549
453
492
501
502
511
509
509
516
518
518
521
512
511
504
501
499
501
501
501
502
503
504
503
503
504
505
503
504
505
506
506
505
506
506
509
508
508
508
507
509
514
516
518
512
504
506
507
510
568
562
457
489
504
504
511
509
510
514
516
520
521
513
512
505
497
500
500
502
502
503
505
504
503
503
504
505
505
504
506
504
508
508
509
509
510
509
509
511
511
510
517
516
522
514
506
507
509
510
562
573
459
488
504
503
511
511
509
514
518
518
523
516
513
507
500
502
501
504
504
504
504
505
506
505
507
505
508
507
507
509
508
507
508
507
507
508
510
508
510
511
519
517
520
514
508
507
508
508
557
585
463
486
507
507
516
513
514
513
520
518
524
518
516
509
502
502
505
505
504
505
505
505
507
506
508
508
508
508
509
509
508
507
508
508
510
511
511
512
512
512
519
517
520
516
510
510
510
511
552
593
468
483
505
506
514
513
513
513
519
520
526
521
518
509
502
504
504
505
505
506
509
507
507
508
508
508
509
512
511
512
511
511
511
510
512
511
512
513
514
513
521
519
521
518
511
512
512
512
547
599
476
484
508
509
515
516
518
515
522
520
529
525
517
510
504
505
506
506
506
508
507
510
510
509
511
512
513
513
511
512
512
515
514
513
515
514
514
513
514
515
522
523
521
518
516
514
514
513
542
602
488
478
507
511
516
518
519
517
524
523
529
528
520
511
506
506
509
509
508
509
511
509
511
511
512
512
513
515
513
515
515
515
516
514
515
514
515
516
516
518
527
526
524
523
520
515
515
516
538
604
500
473
508
511
515
517
519
517
526
526
533
532
522
515
511
510
510
511
509
512
513
513
513
514
516
515
514
516
517
515
516
515
514
515
516
516
516
518
518
518
525
524
525
525
525
518
520
519
534
602
512
475
509
515
515
522
521
519
529
527
534
532
526
516
509
510
511
512
513
515
515
512
514
514
515
516
515
516
516
516
516
518
518
519
519
518
519
519
520
520
526
527
525
525
526
519
519
519
531
600
529
472
510
515
515
523
523
524
532
528
534
531
526
518
510
512
512
512
513
512
514
515
515
514
515
517
518
518
518
518
518
519
519
519
520
519
520
520
520
520
527
528
526
528
523
517
518
518
528
595
539
470
509
516
517
524
524
523
530
529
536
536
525
519
514
514
515
513
515
516
516
516
517
516
518
518
519
520
519
519
518
519
521
520
521
521
520
522
521
521
523
530
528
531
528
520
523
522
528
592
555
469
509
520
518
525
524
523
530
530
534
534
527
522
515
513
515
514
515
517
517
518
518
516
519
518
518
516
519
518
519
519
519
520
521
523
521
521
520
522
524
528
529
532
529
520
520
521
526
586
566
468
506
517
519
527
524
524
530
530
533
536
527
525
520
515
514
516
517
518
517
517
518
518
518
519
519
520
520
519
523
522
522
521
523
524
522
521
522
522
521
528
528
532
528
519
520
521
522
581
578
470
504
519
520
527
526
527
531
532
533
538
528
528
521
514
515
512
515
515
515
517
517
518
518
519
519
519
519
519
520
521
521
522
523
522
523
522
522
522
521
529
529
531
526
519
520
521
522
574
588
473
502
519
519
527
525
524
526
531
531
536
528
528
522
514
516
517
515
516
516
519
518
517
518
518
519
519
519
519
522
521
521
520
521
524
523
523
521
523
521
529
529
533
528
520
521
521
522
568
598
477
496
519
520
526
524
525
527
530
529
534
530
527
520
513
512
514
515
516
516
518
518
518
518
520
519
519
519
520
521
521
519
521
520
521
521
521
522
522
522
530
530
530
528
521
519
520
521
561
605
482
494
517
516
525
524
526
524
530
529
536
531
527
518
511
512
514
516
516
516
516
518
518
519
521
518
520
518
518
518
520
522
519
519
520
522
522
520
520
522
528
528
526
526
521
519
521
521
555
609
489
491
518
517
524
524
524
524
532
531
536
533
527
520
513
514
516
517
517
517
516
518
516
518
517
518
517
518
518
520
521
519
518
519
520
519
522
521
521
521
530
527
526
525
522
522
520
519
548
610
498
484
514
515
521
524
523
522
528
527
536
533
524
518
511
512
513
513
514
513
513
514
513
517
518
519
518
518
517
519
517
518
518
517
517
518
519
519
519
520
527
527
527
525
524
519
521
516
540
608
504
480
513
516
517
523
522
522
530
528
536
535
525
518
509
512
511
511
512
514
513
515
514
515
516
516
515
517
517
518
517
520
518
518
519
518
519
519
520
520
526
526
523
523
523
518
519
517
535
601
517
474
507
513
515
521
520
520
528
526
537
531
522
516
508
509
511
511
512
513
513
513
514
514
513
514
515
515
515
518
518
516
518
518
517
515
517
518
518
518
523
524
523
523
521
514
517
517
528
595
526
467
507
511
513
521
521
519
528
524
533
532
521
516
507
507
509
508
510
511
511
511
512
513
514
513
515
514
515
515
515
515
514
516
517
515
516
516
517
518
520
522
523
526
524
516
516
515
524
588
539
465
505
513
513
521
519
522
525
523
532
531
520
517
510
512
510
510
510
511
511
512
511
513
512
513
511
512
512
514
515
515
515
515
514
515
515
515
516
515
519
522
523
527
522
515
515
514
522
583
551
463
502
512
510
519
518
517
525
523
528
531
521
518
511
509
509
509
509
509
511
510
511
511
510
510
512
512
513
511
512
514
513
515
515
515
515
515
515
515
516
522
522
526
523
512
512
512
519
578
562
463
498
509
511
518
519
517
523
521
525
528
518
521
512
507
506
507
508
508
510
510
511
510
511
512
512
511
511
511
513
514
513
513
514
513
513
513
514
514
514
522
520
525
519
511
514
512
515
569
574
461
494
511
511
520
516
515
519
523
523
526
519
520
514
505
503
505
506
508
508
509
508
510
510
511
512
510
511
513
512
513
513
514
514
513
514
514
512
513
514
520
519
524
520
511
513
512
513
563
581
464
491
509
508
515
515
515
517
520
516
526
519
517
511
504
505
504
504
505
506
505
506
507
508
508
509
508
510
511
511
512
509
506
511
511
511
511
511
512
511
519
519
520
517
509
511
512
512
557
591
470
489
509
509
518
521
514
514
521
518
527
520
517
509
504
505
505
505
506
507
506
505
507
505
507
508
507
510
509
508
508
509
508
509
510
512
512
510
512
511
517
518
517
517
510
512
509
511
548
595
470
481
506
507
512
513
515
514
520
517
524
520
517
509
502
503
502
504
504
505
504
503
506
506
507
508
507
508
509
509
509
509
511
510
510
510
511
509
512
512
519
516
517
515
509
509
508
508
540
600
479
476
505
505
511
512
512
510
519
518
525
520
514
507
499
502
503
503
502
502
504
505
504
506
506
506
505
507
507
507
506
509
509
509
510
511
511
511
511
510
520
517
517
516
512
509
508
507
533
596
486
471
502
503
508
511
511
511
519
516
523
522
515
507
498
502
502
502
502
503
503
503
505
505
504
505
505
506
506
507
508
510
509
510
508
509
509
509
509
508
518
514
516
519
512
509
509
509
529
596
500
466
502
504
507
512
511
510
519
517
525
522
514
505
499
501
501
502
502
501
505
504
504
504
505
504
505
506
506
507
507
507
506
507
508
509
508
509
510
507
516
514
515
515
513
509
507
507
521
589
508
460
498
501
503
509
507
508
518
515
523
521
510
507
497
499
501
499
502
503
503
503
503
503
504
504
505
507
506
507
508
505
507
508
509
508
508
507
508
508
513
513
513
514
513
506
506
507
516
584
520
456
495
503
505
511
510
510
516
513
522
519
513
505
500
501
499
499
500
501
504
503
504
503
503
504
505
504
506
506
506
506
506
506
507
508
506
508
508
508
511
515
514
516
511
507
506
507
514
578
531
455
495
501
501
510
509
510
519
515
521
520
512
507
502
500
500
502
501
502
503
504
503
501
504
504
504
506
506
506
506
505
505
507
505
506
507
506
509
508
509
512
511
515
511
508
505
506
512
573
545
455
491
503
504
510
511
509
517
516
520
518
512
510
503
499
499
500
499
500
503
502
504
503
503
502
500
503
504
502
505
504
504
505
507
505
504
505
507
507
506
513
513
518
512
505
507
507
511
569
558
454
491
503
502
512
509
508
514
514
517
520
510
511
502
497
498
499
500
499
498
500
502
501
502
503
502
503
503
503
505
505
505
504
504
506
504
509
508
503
507
515
512
517
511
505
505
507
508
560
569
455
485
502
502
510
509
507
511
515
515
519
511
511
504
497
499
500
499
499
500
499
501
502
503
501
503
503
504
504
504
503
505
505
504
506
506
504
504
506
504
512
513
515
512
504
504
506
503
552
577
459
483
501
502
509
505
507
508
514
511
517
511
509
503
496
497
497
497
499
500
500
502
502
502
502
502
503
503
504
504
504
504
504
503
506
503
504
504
502
503
511
509
513
509
502
502
503
503
546
584
461
477
505
499
506
506
506
508
514
514
519
513
511
502
496
498
497
497
498
500
499
499
500
502
503
503
503
501
503
502
503
503
504
503
503
508
504
504
506
504
513
512
513
510
504
504
504
504
540
589
467
473
499
500
507
507
506
506
513
513
517
515
508
501
496
494
496
498
496
498
498
500
502
500
502
502
503
503
503
503
501
502
503
503
501
502
503
503
503
504
513
512
510
508
503
502
504
502
533
590
472
467
497
497
502
504
506
506
511
510
519
516
507
502
496
496
497
495
495
498
499
499
498
501
502
502
500
501
501
502
503
503
503
502
502
502
504
504
503
506
513
511
509
508
506
503
503
504
525
589
483
463
495
498
500
506
507
506
512
511
518
515
509
500
494
497
497
496
498
499
499
499
499
500
500
500
501
501
502
500
501
502
501
502
499
502
502
501
502
503
511
511
510
508
507
501
502
502
521
585
492
458
493
497
501
504
508
506
513
512
518
518
508
499
496
494
496
497
497
497
498
501
502
500
501
501
502
502
501
501
502
503
501
503
503
501
504
503
504
505
511
511
510
510
507
502
503
502
515
582
505
456
492
497
498
505
506
505
511
511
519
516
507
501
493
494
495
496
497
496
498
499
498
500
498
499
500
499
500
501
502
503
502
502
503
505
505
504
505
504
510
512
510
510
508
500
502
501
512
578
517
453
492
498
498
506
506
504
512
512
517
517
508
504
497
497
497
497
497
496
498
498
501
499
499
498
501
500
500
500
503
501
502
503
502
502
503
504
502
504
504
510
509
511
509
497
502
502
510
573
530
450
491
500
500
508
507
505
514
512
516
518
507
504
499
498
498
498
497
499
499
499
500
502
501
502
499
502
502
504
503
505
505
503
502
503
504
503
503
504
508
512
511
516
509
501
501
504
508
569
545
452
489
501
500
509
507
507
512
514
517
518
512
508
502
495
498
497
499
500
499
499
502
503
501
499
500
501
502
503
502
505
504
504
503
503
503
504
505
504
505
512
511
518
510
503
504
504
507
564
556
452
487
500
500
509
508
509
512
513
516
518
509
510
504
497
497
498
500
499
501
499
499
501
501
503
504
504
505
505
507
504
506
506
507
506
507
507
506
506
505
513
512
519
512
505
506
505
506
559
570
457
486
504
502
510
511
511
513
514
516
523
514
511
506
496
501
500
500
502
502
502
502
502
503
501
502
503
503
505
504
508
505
504
505
505
505
504
506
507
506
515
513
516
513
504
506
505
506
556
581
461
485
503
502
510
509
509
510
516
516
522
517
515
507
500
500
500
502
503
503
503
505
505
505
506
505
505
506
505
506
507
507
507
507
507
508
510
509
509
509
516
515
516
512
504
507
507
508
549
589
466
481
504
503
510
510
511
513
517
517
523
517
514
504
498
503
502
502
502
503
502
506
504
505
506
506
505
508
506
507
508
510
511
509
510
510
510
511
510
510
519
518
518
515
508
507
508
509
544
596
475
479
504
505
512
514
511
510
519
516
527
521
514
506
499
502
504
504
505
504
507
506
505
508
507
508
508
508
509
507
510
508
508
509
509
510
511
509
510
510
518
517
518
517
511
510
510
510
539
599
483
474
503
506
511
514
514
514
520
520
526
524
517
508
502
503
503
504
505
506
505
507
507
508
506
507
509
509
509
509
510
509
511
510
510
510
509
511
511
511
518
519
518
516
513
511
511
511
534
598
495
473
505
507
511
516
517
515
519
523
529
525
519
510
504
503
506
505
507
505
506
506
509
507
506
509
509
510
508
509
509
510
511
510
512
511
512
512
511
512
520
517
519
519
517
515
510
511
528
596
507
469
504
508
510
515
515
514
523
521
527
525
518
511
504
504
505
507
506
508
507
508
510
508
508
509
507
511
510
512
511
511
511
511
513
513
513
512
514
513
519
519
520
518
518
510
513
512
526
597
520
465
504
510
509
518
516
515
525
522
527
524
516
510
504
505
504
508
507
509
507
508
511
509
509
508
511
509
510
509
510
511
510
513
513
514
513
514
514
513
518
519
519
521
521
510
511
511
521
589
531
462
501
510
511
517
517
517
525
522
529
527
523
515
505
506
503
506
506
506
507
510
508
509
509
510
511
510
512
512
515
513
514
515
512
513
513
513
513
515
515
521
519
523
519
512
513
514
520
583
547
461
501
511
510
518
517
519
523
522
529
528
519
517
510
508
510
507
508
508
510
509
508
511
509
511
510
515
511
511
512
513
513
514
516
515
512
515
514
514
514
522
522
527
521
512
514
514
520
579
559
460
501
510
508
518
517
518
522
522
524
527
520
518
511
504
506
507
509
509
511
509
512
511
512
510
513
513
515
516
515
514
515
516
514
515
515
518
518
516
516
523
522
527
521
513
515
516
517
572
570
463
498
513
512
521
519
520
523
525
526
528
521
521
514
510
508
508
510
510
511
511
512
511
514
514
512
513
514
514
514
516
516
516
513
515
516
516
515
516
518
525
527
528
523
515
516
515
517
570
584
470
496
513
515
524
521
521
523
525
527
530
523
524
517
509
509
511
511
514
511
513
513
514
513
514
516
516
518
517
515
517
515
517
518
518
517
522
517
521
518
526
525
528
523
517
518
518
518
565
593
473
493
516
514
525
521
521
522
528
527
533
526
524
519
511
512
512
511
513
513
514
513
518
517
516
516
515
516
518
517
518
520
517
518
517
519
519
521
520
520
530
526
527
526
518
518
519
519
559
606
479
492
516
515
524
524
524
523
532
528
534
529
525
517
511
515
513
516
515
515
516
515
516
517
519
518
519
518
519
518
517
519
517
520
520
522
521
521
520
520
528
527
528
527
523
519
522
520
555
608
490
489
517
519
523
524
524
524
531
530
536
532
527
518
511
514
513
515
513
517
515
516
517
517
516
518
519
520
519
519
522
520
521
519
519
521
519
520
520
525
530
528
527
527
524
520
520
520
549
609
499
485
516
518
523
525
526
527
531
530
537
536
529
521
513
515
518
516
515
516
516
517
518
517
518
519
519
521
520
523
521
519
521
523
523
522
521
522
521
523
529
530
532
530
525
521
521
521
542
608
508
482
516
519
521
523
523
524
532
529
536
535
527
518
512
512
514
516
516
516
517
518
517
518
519
517
518
519
520
524
519
521
522
521
521
520
522
522
525
523
530
530
527
527
527
520
519
523
535
606
518
476
512
516
519
525
527
524
532
530
538
535
527
519
512
515
514
515
516
516
516
516
519
518
519
519
521
519
519
521
521
520
523
525
521
523
521
522
522
521
526
528
531
528
527
520
522
522
533
602
531
475
512
518
519
525
523
522
530
529
535
533
526
519
514
514
514
515
515
516
515
517
517
517
517
520
518
517
519
518
520
517
517
518
519
519
521
523
521
521
526
528
526
529
526
517
519
518
527
592
542
468
509
517
516
526
522
523
528
529
535
535
524
519
517
513
514
514
515
514
516
516
515
519
516
517
518
517
518
518
519
519
519
519
520
519
521
520
519
519
521
527
525
529
524
517
517
519
522
585
557
466
507
515
514
523
523
523
528
531
532
530
524
520
513
510
511
512
515
515
515
514
514
516
515
514
517
518
518
517
517
515
519
519
519
519
520
519
520
519
520
527
526
529
525
514
515
517
520
581
568
465
503
515
516
524
521
521
526
528
530
532
524
521
517
511
509
511
511
512
511
513
512
514
514
515
516
515
517
516
514
514
516
516
517
517
518
517
516
518
517
527
526
530
524
516
515
515
519
576
576
467
497
514
513
525
520
521
524
525
528
532
523
523
516
508
509
509
511
513
514
513
513
512
513
514
512
514
514
515
514
513
515
516
516
516
516
517
518
514
518
524
524
529
522
515
518
518
518
568
587
470
495
514
513
522
519
519
520
525
524
529
524
521
512
507
507
508
509
510
511
512
512
511
512
513
513
513
513
514
512
517
515
516
516
515
517
515
518
515
517
525
523
526
522
513
516
517
513
560
595
470
490
512
510
519
518
516
517
525
523
529
526
523
514
508
503
508
509
509
511
511
512
513
512
512
511
511
513
513
513
514
514
514
512
513
515
515
515
515
514
522
521
519
521
512
515
514
514
553
603
476
483
510
510
517
516
516
515
522
521
527
525
521
512
507
507
509
509
509
506
510
510
510
512
511
513
513
512
512
512
514
514
512
514
513
514
516
513
516
515
524
521
522
520
515
512
512
513
544
602
483
481
510
509
515
515
517
518
522
522
528
528
519
512
501
506
507
505
505
507
509
508
509
508
510
511
511
511
511
513
510
511
508
512
512
512
512
512
512
513
519
517
518
519
513
511
512
511
537
602
488
475
507
510
513
516
516
514
522
518
528
525
518
510
503
503
503
503
503
507
508
506
507
509
508
509
510
508
511
509
511
510
510
512
512
511
512
512
511
512
521
519
518
517
515
512
510
509
532
599
500
469
502
505
506
512
513
511
519
518
526
524
516
506
502
504
505
506
506
507
507
507
505
507
507
507
509
508
511
510
508
507
510
509
512
512
510
511
512
510
514
519
518
516
516
511
511
510
524
591
512
465
500
507
506
513
513
513
519
520
528
523
513
506
501
501
501
502
504
503
504
505
504
506
507
506
504
506
507
508
507
511
510
509
508
508
509
508
511
510
515
515
515
517
513
510
508
507
518
587
522
459
498
501
505
512
512
510
519
518
524
521
512
509
501
502
502
502
502
502
504
501
506
505
505
504
505
507
506
509
503
505
508
508
507
510
507
509
508
506
512
516
515
518
514
505
507
507
514
581
534
456
494
503
501
509
510
507
517
516
520
522
514
507
504
500
497
501
502
502
502
503
503
504
504
503
505
504
506
505
506
508
505
506
504
506
507
507
511
507
509
513
513
515
512
504
504
506
511
570
544
453
491
502
502
510
509
507
514
513
520
518
511
510
503
499
499
499
499
499
500
502
500
502
502
502
503
504
505
503
504
507
507
508
508
507
505
506
503
507
507
513
512
517
509
504
507
503
510
567
558
457
491
503
500
512
507
508
513
514
516
518
510
510
503
495
497
497
496
498
500
500
503
501
500
502
501
501
504
503
504
505
504
503
506
504
505
505
506
506
506
513
512
517
511
504
505
504
505
560
566
454
485
501
500
509
507
509
511
514
513
519
511
510
502
496
497
497
498
496
498
499
500
501
501
502
500
500
499
503
502
501
503
503
504
505
504
501
505
505
506
511
512
518
509
500
502
505
505
553
575
459
481
500
500
505
506
507
508
513
513
518
512
510
499
496
498
498
499
500
499
501
501
499
500
499
500
501
503
501
503
500
500
502
503
504
503
504
505
505
504
512
510
513
509
501
503
503
503
544
582
460
477
502
500
508
506
505
508
513
511
519
512
508
501
492
495
494
496
498
499
498
501
502
502
502
501
502
501
503
504
502
504
503
505
505
502
502
503
505
504
511
510
510
509
503
503
502
501
538
590
465
472
497
499
506
505
506
505
513
511
517
515
511
502
492
497
496
495
496
497
498
501
498
499
500
500
499
501
502
502
504
501
503
503
502
501
502
503
504
504
513
509
510
508
505
502
502
502
534
592
473
467
495
498
503
505
506
507
512
512
517
517
507
500
494
495
497
497
497
497
496
497
497
497
498
501
500
501
500
502
503
502
502
502
503
503
504
503
503
504
512
509
509
508
506
503
503
503
528
590
484
464
497
499
500
504
506
506
510
513
518
517
509
500
493
495
496
496
496
498
500
497
499
499
498
499
501
499
501
503
501
503
502
505
504
504
504
504
506
504
512
510
508
507
506
502
500
508
519
588
494
459
496
499
498
505
506
504
513
512
517
516
507
500
493
496
497
497
495
498
498
499
497
497
499
499
501
502
503
502
501
501
502
502
502
503
503
502
503
503
509
510
509
511
509
502
501
502
514
585
506
456
493
496
497
505
506
505
513
510
519
517
508
501
495
496
495
497
497
498
497
498
498
499
499
499
499
501
502
502
501
501
502
501
501
502
503
504
503
504
508
510
509
511
510
501
503
502
513
578
521
453
492
498
498
510
505
509
512
511
517
515
509
503
495
496
495
497
496
496
496
499
499
499
500
500
501
500
499
499
500
501
502
501
502
502
503
502
501
502
505
509
509
512
508
500
503
502
509
573
533
451
491
500
499
506
507
505
513
513
517
518
509
506
500
495
496
495
497
498
498
499
499
498
500
500
501
502
501
501
500
502
502
503
504
502
503
503
503
502
504
511
510
514
509
500
501
503
508
568
546
449
488
499
499
508
506
506
512
511
516
517
508
507
499
495
494
496
497
499
498
499
499
500
500
501
500
501
501
501
501
501
502
502
501
503
502
504
504
503
504
512
511
516
507
501
503
504
506
563
558
451
485
499
498
509
504
504
511
512
515
516
508
507
502
494
494
497
497
497
496
498
497
499
497
499
502
501
500
501
502
504
502
502
502
502
503
503
505
504
504
510
511
516
511
502
503
508
505
558
569
455
484
502
499
509
507
505
508
513
512
518
510
508
503
496
496
497
497
499
499
500
500
499
500
500
501
502
503
503
505
501
504
503
504
503
506
507
506
505
503
511
511
514
509
502
503
503
505
550
578
457
479
500
499
508
506
507
509
514
513
520
513
511
501
496
496
496
498
496
498
499
500
498
499
501
500
501
502
503
504
504
503
504
503
503
504
504
504
505
504
511
511
512
510
501
504
503
503
545
586
463
480
500
501
509
509
509
508
513
513
519
514
509
501
495
496
497
494
497
500
501
500
499
500
500
501
502
503
504
504
505
503
505
504
505
505
506
506
505
507
513
511
513
509
505
504
505
505
540
591
472
475
502
501
508
510
507
508
513
513
520
515
512
503
496
499
498
499
499
499
500
500
500
503
502
503
503
503
504
504
503
505
507
504
506
508
506
503
505
506
515
513
512
511
507
504
505
505
533
595
483
468
500
503
509
511
510
509
516
516
521
519
512
504
497
497
500
500
501
500
502
501
502
502
502
502
505
505
503
506
505
506
505
506
507
508
509
506
506
508
516
515
514
511
510
505
505
507
527
594
489
468
501
504
506
511
511
510
517
516
521
521
512
505
498
498
500
500
501
502
502
502
502
501
505
505
505
506
505
507
505
509
508
508
509
510
509
508
510
508
515
513
514
513
513
507
509
507
527
595
505
465
502
505
506
511
513
512
521
516
525
521
513
506
497
499
500
502
501
502
502
503
505
505
505
506
508
505
508
507
507
507
509
509
508
508
508
510
511
509
516
518
516
518
517
508
509
509
521
591
515
462
500
506
506
513
512
513
522
518
526
526
517
511
502
503
504
504
503
503
505
507
505
507
506
508
507
509
508
509
509
510
510
510
511
511
509
509
511
511
516
518
517
519
517
508
510
512
521
587
531
460
499
507
505
516
514
514
522
521
525
525
518
514
507
504
507
505
507
506
508
506
508
508
509
508
509
510
510
509
511
511
512
512
512
512
515
513
512
512
516
520
521
524
519
510
511
510
520
581
544
459
501
510
510
518
517
517
524
521
527
528
517
514
508
505
506
505
508
508
508
508
507
508
510
510
511
512
510
511
512
511
512
513
512
514
512
514
515
514
514
521
520
525
519
509
514
514
519
579
560
462
500
511
511
518
519
518
523
524
527
529
521
518
511
508
507
508
508
510
509
509
509
511
512
511
511
512
514
512
516
515
515
515
515
517
516
516
515
513
517
523
523
528
522
514
516
516
518
575
571
463
498
510
512
519
517
518
521
524
525
527
519
520
513
506
508
508
510
509
508
512
512
512
512
513
513
515
516
515
515
514
514
516
517
518
517
518
518
518
517
526
524
528
523
516
517
516
513
569
583
469
497
514
514
523
520
520
523
526
525
531
524
522
516
509
510
510
510
511
512
512
512
512
514
515
515
513
515
515
515
517
517
515
518
517
518
519
519
518
519
525
524
528
522
514
516
519
517
564
593
471
493
512
511
521
520
520
520
526
528
531
525
522
515
510
509
511
510
512
511
514
514
515
515
516
514
515
516
515
516
518
516
519
516
517
518
519
520
519
519
526
525
527
524
517
518
516
517
556
601
477
491
514
515
522
520
520
519
526
527
533
528
523
516
510
510
511
510
511
511
512
514
514
515
515
516
515
517
516
517
518
518
516
516
517
518
518
518
517
520
527
525
526
525
520
519
518
518
552
605
484
486
513
515
520
520
521
519
526
527
533
529
523
516
508
511
510
511
518
513
513
514
514
516
516
516
516
515
515
517
519
518
518
519
519
519
520
518
519
518
528
524
524
524
521
519
518
520
547
607
492
483
512
514
519
522
522
521
527
528
534
529
525
516
510
510
511
512
514
513
512
514
516
515
515
516
516
516
516
517
519
518
518
519
519
519
517
519
519
519
529
525
526
524
521
518
518
518
540
606
502
479
511
513
515
520
522
521
528
525
536
534
523
516
510
510
512
514
513
515
514
514
516
514
515
515
516
515
516
518
518
517
517
519
519
517
519
521
522
521
526
526
526
524
524
519
517
519
535
604
514
475
511
515
514
521
520
521
528
526
535
531
522
516
509
511
511
513
513
513
515
514
514
515
516
515
516
517
516
518
518
518
518
518
518
518
517
518
519
519
526
525
525
526
526
519
517
519
532
599
528
472
509
516
515
523
520
520
529
528
533
530
523
518
510
509
510
511
512
513
512
514
512
513
514
514
514
515
516
514
516
517
517
516
517
517
518
518
520
518
523
525
525
527
525
518
518
520
527
594
540
468
510
514
516
521
521
520
527
524
533
533
523
518
513
512
512
512
511
513
512
515
514
515
514
514
515
517
517
518
517
517
518
517
518
519
518
518
518
516
520
525
527
530
525
517
518
518
524
587
551
466
506
513
513
521
521
520
528
528
530
531
523
523
515
512
513
513
513
513
514
514
515
514
513
515
514
513
517
518
517
518
518
517
517
517
517
518
518
519
519
526
524
530
523
515
517
517
523
579
564
464
503
516
514
522
522
521
526
529
530
531
523
521
515
510
511
510
510
511
511
511
513
513
512
513
513
515
516
515
517
517
516
516
517
518
518
518
518
518
518
524
528
531
523
517
515
518
521
577
576
468
501
514
515
522
521
523
525
527
528
532
523
523
514
510
506
510
510
510
512
513
512
514
514
514
514
516
516
515
516
517
518
518
518
518
518
518
518
518
517
526
524
528
524
517
517
518
519
570
586
470
497
515
515
524
523
519
522
527
525
532
525
524
517
511
509
509
511
512
512
512
512
512
514
513
514
514
517
514
514
515
516
516
518
517
519
519
517
518
518
525
525
528
523
516
514
515
515
561
593
470
492
514
513
522
519
519
520
526
525
531
526
523
513
511
512
511
512
513
512
513
513
513
515
514
514
515
515
516
517
518
520
518
517
519
517
517
517
518
517
526
524
525
523
517
518
518
519
558
603
479
492
513
514
521
522
522
521
527
527
533
529
525
515
508
509
512
511
511
513
513
512
512
513
514
516
516
516
516
516
516
517
518
519
518
519
520
518
517
518
526
524
524
523
518
517
517
517
552
606
486
489
514
514
520
523
521
522
527
525
534
531
527
516
509
511
509
510
512
512
514
514
515
514
517
515
515
517
516
517
518
518
519
520
521
520
518
520
520
519
529
526
527
526
522
518
518
518
545
606
493
482
512
512
518
521
521
522
529
526
534
528
525
517
511
513
513
514
515
516
518
514
516
517
517
517
516
517
516
518
519
520
519
519
519
521
521
520
523
519
527
525
526
525
522
519
519
519
542
607
508
479
513
516
517
523
523
524
530
529
537
534
528
519
512
514
512
515
513
516
517
516
517
516
516
518
516
519
520
520
521
520
519
519
520
520
521
521
519
521
528
527
528
527
525
518
521
521
535
604
519
476
514
517
519
525
526
525
534
530
537
536
527
520
512
514
513
515
514
516
518
516
517
516
518
518
517
519
519
519
520
519
518
520
518
520
520
520
520
523
529
530
530
531
528
521
522
522
533
600
532
474
512
518
518
525
525
522
531
530
536
532
525
520
512
514
514
514
514
516
514
516
516
518
518
520
517
517
518
520
521
520
521
523
522
522
523
522
523
523
526
527
530
532
528
519
522
521
530
595
546
470
511
520
520
526
525
525
530
532
538
536
524
521
514
512
514
513
514
518
515
518
517
518
518
519
518
519
519
520
520
521
520
522
522
521
521
519
521
521
524
528
526
534
527
519
520
521
527
589
558
469
507
518
518
525
527
525
531
531
535
536
527
525
516
513
513
514
515
517
518
514
515
515
516
516
516
517
518
519
519
519
521
520
521
520
520
520
519
522
522
528
526
532
527
520
519
521
525
583
570
469
505
519
517
526
525
523
529
530
531
534
527
525
519
515
514
514
513
516
514
514
515
516
517
516
519
517
520
518
518
520
520
519
519
521
520
519
520
520
520
527
529
533
525
519
518
518
521
577
578
469
500
516
515
525
521
522
525
528
528
532
524
528
518
511
511
512
514
514
513
513
514
515
514
515
514
516
518
516
516
515
517
517
517
520
518
520
519
519
520
526
526
530
525
518
519
520
518
569
586
470
497
515
515
522
520
520
521
526
526
532
525
527
517
511
513
513
512
512
512
513
514
513
513
515
515
516
515
515
517
516
518
518
517
519
519
518
518
519
519
527
525
527
522
515
516
517
517
560
596
472
491
512
512
520
520
519
520
526
525
532
527
524
514
509
509
508
510
511
511
513
512
513
514
515
515
516
515
514
516
516
517
517
514
516
516
516
518
518
516
524
522
524
521
515
518
517
515
553
602
478
486
511
512
518
519
520
519
525
524
528
527
521
514
509
508
510
510
510
511
511
512
511
512
512
512
515
515
514
513
515
515
513
514
514
514
516
517
517
517
523
524
523
521
515
514
515
514
544
603
486
480
509
510
515
518
517
520
523
523
530
528
520
513
505
507
509
507
508
509
509
510
511
511
512
512
512
513
513
513
513
514
516
515
515
515
514
515
515
517
523
522
521
519
516
513
513
515
538
601
494
476
508
509
514
518
518
516
524
523
529
530
520
511
505
507
506
505
506
508
508
509
509
510
512
510
511
512
512
511
512
512
512
513
513
515
514
514
514
514
522
522
521
519
518
512
514
513
533
599
502
472
506
509
509
516
516
515
523
521
529
527
520
511
504
506
506
505
505
506
507
506
506
509
507
506
509
509
509
511
511
509
512
512
510
513
511
513
513
514
519
519
517
519
517
510
510
511
527
596
515
466
503
507
508
514
513
513
522
520
528
524
516
510
505
505
504
505
505
509
506
507
507
508
508
508
509
509
508
509
510
510
509
510
510
510
511
512
511
513
517
519
517
518
518
510
509
511
521
589
524
462
500
507
506
514
513
512
522
518
526
523
512
509
501
501
502
504
502
503
505
507
507
508
505
506
507
506
508
508
508
509
511
508
507
509
510
509
510
510
513
516
517
519
516
508
508
510
517
581
539
458
497
507
506
513
512
513
520
517
525
522
514
510
504
501
500
502
502
502
503
505
504
504
504
507
504
505
507
507
508
505
507
508
508
508
508
508
508
509
509
515
516
520
513
507
508
507
513
575
549
455
493
504
504
512
511
512
517
517
521
522
513
512
506
501
504
502
501
501
503
504
501
505
504
504
506
505
505
505
506
508
507
507
508
510
509
511
510
509
509
517
515
521
512
506
506
508
511
568
558
454
491
505
504
512
510
511
515
516
519
520
512
512
503
499
501
501
500
503
503
502
501
503
505
505
505
504
506
506
505
506
511
506
508
507
506
508
508
507
508
515
514
517
512
504
506
507
508
563
571
457
487
502
502
512
510
509
512
514
516
521
513
512
505
500
499
501
500
501
501
502
502
503
504
505
505
504
505
506
505
505
506
505
506
506
505
506
506
507
505
514
514
516
511
504
507
505
507
555
579
462
485
504
503
509
509
508
510
514
514
519
512
512
504
498
498
499
501
499
501
503
502
503
504
505
505
504
504
505
505
505
506
506
506
505
506
504
507
509
509
515
516
516
512
505
507
506
507
550
586
465
480
504
501
513
511
510
510
515
514
521
516
512
505
498
499
499
500
500
501
501
502
502
504
503
504
505
504
504
503
505
505
504
504
506
507
507
508
507
507
516
513
513
513
506
505
505
506
540
592
470
475
500
501
509
509
509
510
516
515
521
517
510
503
496
498
499
499
500
503
502
500
500
501
503
503
503
505
504
504
505
505
504
507
506
505
504
507
508
508
516
513
513
510
507
507
507
506
536
594
480
471
501
503
508
509
510
510
516
513
521
519
511
503
497
498
498
501
501
500
501
501
502
502
502
505
502
504
504
504
506
504
506
507
506
504
507
509
508
506
513
512
514
511
508
506
507
507
530
595
489
469
499
503
505
508
509
510
518
515
524
519
513
505
498
499
499
499
501
502
502
502
502
503
503
502
504
506
503
506
506
506
506
506
505
506
507
507
505
508
514
515
513
513
511
506
507
507
524
592
501
463
497
502
503
509
509
507
517
515
521
520
512
505
497
499
498
499
500
500
501
503
505
504
504
505
505
504
505
506
507
505
506
504
508
506
507
507
506
507
515
516
514
514
512
504
505
506
518
587
511
460
497
503
504
511
509
510
519
516
524
522
512
505
498
499
498
498
501
501
501
502
503
502
504
504
503
503
505
504
506
504
506
505
506
506
507
508
507
507
512
514
513
515
512
504
505
507
516
581
524
457
496
504
502
510
508
510
516
513
521
520
510
506
500
498
498
499
499
500
501
502
503
503
503
504
505
503
505
502
506
507
506
507
506
506
506
506
507
509
509
515
515
517
514
506
507
505
512
577
539
454
494
504
504
510
509
508
516
516
521
519
509
507
500
498
497
500
502
500
499
502
501
501
502
503
504
504
502
503
506
506
506
506
506
507
508
506
508
507
507
514
513
519
512
504
506
505
512
572
552
454
491
504
504
512
509
510
514
516
518
520
512
509
502
498
497
500
499
501
503
502
502
504
503
502
503
503
503
504
505
506
505
507
507
507
507
506
506
506
508
515
513
519
511
505
504
505
508
564
562
453
489
504
503
510
509
509
513
513
517
520
512
512
504
499
497
499
501
503
504
504
504
505
504
505
504
504
506
504
505
505
506
506
507
506
507
507
507
507
508
514
513
515
513
505
505
507
506
559
574
458
486
504
502
512
510
509
510
516
515
520
514
514
505
499
500
499
499
500
503
502
501
502
503
506
502
504
505
507
505
505
505
504
505
508
507
507
508
507
507
515
513
517
512
504
506
506
506
554
583
463
484
504
504
510
508
510
510
519
515
521
516
514
505
499
501
503
500
503
503
503
504
502
504
503
504
505
505
506
507
507
508
506
506
505
508
506
507
506
506
516
512
513
512
505
504
508
506
546
589
466
478
504
504
511
509
509
509
516
514
523
517
512
504
498
499
500
501
500
500
501
502
502
504
506
504
504
506
508
506
504
508
508
506
508
507
507
508
507
509
517
514
513
512
508
507
506
506
540
595
474
475
501
503
508
510
509
509
517
515
521
520
513
504
496
497
500
501
500
500
504
504
504
503
504
503
503
505
507
504
507
507
507
508
507
508
509
507
508
508
515
514
515
513
508
507
508
507
536
595
481
471
502
502
507
510
508
509
518
516
521
520
513
505
498
498
499
498
501
502
502
503
503
501
502
505
503
502
506
505
506
506
506
508
507
506
505
507
507
508
515
515
515
513
511
508
508
509
529
594
492
466
498
502
507
509
510
509
518
516
526
520
511
503
497
499
499
500
499
499
501
502
502
504
504
503
504
503
505
505
505
506
505
505
507
506
504
505
505
506
514
512
512
512
511
504
503
505
521
590
501
461
496
502
501
507
509
510
515
514
521
519
512
504
498
498
498
499
500
500
501
499
503
502
503
503
504
504
504
505
504
505
504
504
505
504
504
504
505
505
511
512
513
512
510
505
504
507
517
585
514
458
495
502
502
507
509
508
516
513
522
519
510
505
496
497
498
499
499
498
497
497
499
501
501
501
502
502
503
503
506
505
505
505
506
506
504
504
506
507
510
512
510
513
512
502
504
505
513
578
525
452
493
500
500
506
509
509
517
514
519
518
509
505
499
497
497
497
497
496
499
499
499
499
501
502
503
502
502
502
504
504
503
503
505
504
505
507
504
505
506
512
510
514
510
500
502
503
510
572
537
451
489
498
499
506
507
508
513
515
517
518
508
504
497
495
494
496
496
497
498
500
499
503
498
498
500
499
501
501
503
503
504
503
503
502
503
502
502
504
504
510
512
516
509
503
504
506
509
567
550
451
490
500
501
509
507
506
515
512
514
516
509
509
501
495
494
495
496
496
499
500
496
498
499
499
498
499
500
501
502
501
503
503
502
502
502
503
502
503
503
511
510
513
508
503
503
502
505
560
559
451
484
500
497
508
505
507
512
512
511
516
508
507
501
496
495
496
496
497
498
499
499
501
498
497
498
500
499
500
502
502
501
502
502
504
503
503
505
505
504
511
512
513
509
501
502
502
502
555
569
454
480
498
498
505
504
502
506
511
511
517
509
509
501
492
495
496
497
497
495
499
499
499
498
501
500
500
498
500
501
501
502
502
502
503
504
502
503
503
504
510
509
513
508
500
502
502
504
551
579
457
478
500
500
508
505
505
505
512
512
517
512
509
500
495
494
494
497
497
497
497
498
499
499
498
500
499
500
500
501
502
504
502
502
503
504
504
503
502
504
510
508
510
508
503
502
503
505
543
586
462
474
498
499
505
504
504
505
511
511
517
511
508
500
494
495
496
496
496
496
496
499
500
498
500
498
500
501
500
500
500
499
502
501
501
502
504
504
503
504
512
510
510
508
501
502
502
503
535
591
471
470
496
495
504
505
505
505
514
511
517
515
508
500
493
496
494
496
496
498
499
497
498
499
499
500
500
502
504
503
502
502
502
503
506
505
503
504
505
503
512
511
511
507
504
501
501
504
529
592
480
465
499
499
504
505
504
505
514
513
519
517
509
500
495
495
495
496
496
498
500
496
500
499
500
499
499
501
500
500
503
503
505
504
504
503
503
504
503
504
511
510
511
509
506
501
502
504
523
591
493
464
496
498
502
506
506
506
515
511
519
515
508
500
494
494
496
496
495
495
497
498
500
500
501
502
501
502
502
500
502
502
502
502
503
504
505
504
504
503
512
513
512
510
510
503
503
504
519
587
502
458
495
499
500
505
505
505
513
513
519
517
510
501
495
497
495
497
497
496
496
497
498
500
500
501
501
502
502
502
502
502
502
503
502
502
504
505
503
503
510
510
511
511
510
504
503
505
516
584
517
455
493
499
500
506
508
506
515
512
520
520
510
503
494
496
494
497
496
499
499
498
499
500
499
500
501
501
504
500
503
503
503
503
502
502
503
504
504
505
509
510
513
513
511
500
502
504
510
576
527
452
492
499
499
506
506
505
513
514
519
518
509
506
499
496
496
496
497
498
496
499
499
500
499
500
501
502
500
501
501
502
503
503
504
504
504
502
505
505
506
509
510
515
510
502
502
502
508
570
541
451
491
500
500
508
506
504
513
511
515
516
507
506
498
494
494
495
496
498
497
499
498
499
499
500
500
501
502
500
501
502
503
503
504
503
505
505
504
505
506
511
510
514
509
501
502
503
506
563
553
449
485
499
497
508
506
506
511
510
513
518
509
507
502
496
497
498
498
499
499
499
498
499
499
500
500
501
501
502
501
503
504
503
505
503
503
504
504
503
503
510
512
514
509
503
502
501
502
559
564
452
482
499
499
508
505
505
511
511
512
515
508
508
502
494
495
497
497
497
497
500
498
498
499
500
499
500
500
500
503
503
502
503
503
504
504
502
502
503
503
512
512
514
508
500
502
503
503
552
574
456
481
502
499
507
507
511
507
511
510
516
510
507
499
492
495
495
497
497
497
496
499
499
498
499
500
500
501
502
502
503
501
501
501
503
504
502
502
504
503
510
511
512
507
500
502
503
502
545
582
461
477
499
499
509
511
507
507
513
512
519
512
509
500
494
494
496
497
497
498
497
496
498
497
499
500
500
501
500
502
501
500
501
501
505
503
503
503
504
505
512
509
511
508
501
500
501
502
538
588
465
472
497
498
504
505
506
504
511
511
519
512
510
501
494
497
496
497
496
498
499
497
497
498
499
498
499
501
501
500
500
502
501
502
503
500
503
503
503
503
512
508
508
506
502
502
501
502
532
588
474
466
498
498
505
505
506
507
513
513
520
516
509
501
495
495
496
496
496
498
498
498
500
500
499
501
499
501
501
502
502
503
503
500
503
503
503
504
502
502
511
510
510
507
504
501
501
501
526
592
483
462
495
498
501
505
504
504
512
511
517
515
508
500
492
494
494
496
496
497
498
498
498
499
502
500
501
500
502
501
503
502
502
502
502
502
498
503
504
504
511
511
510
508
506
502
502
502
521
588
493
458
493
497
499
505
504
505
513
509
518
515
507
500
493
497
496
497
497
497
498
498
499
498
499
500
500
502
500
501
501
503
502
503
503
501
502
503
502
504
511
511
511
509
509
502
503
503
518
585
506
456
493
497
499
507
506
507
514
513
519
516
508
500
494
496
496
494
496
497
497
497
498
498
497
499
499
499
500
500
501
502
501
501
502
503
504
503
504
504
509
511
510
511
507
502
501
502
512
579
519
453
491
498
498
507
506
504
514
511
518
517
508
503
496
495
493
496
496
496
498
498
500
499
499
500
502
500
499
500
502
502
502
503
502
502
502
503
503
503
506
508
510
511
510
500
503
502
508
574
530
450
492
498
500
505
505
504
510
512
515
516
507
504
497
495
495
496
497
497
496
498
500
500
501
500
501
500
502
501
500
503
502
503
501
501
501
501
504
503
505
511
510
515
510
503
502
503
508
568
545
451
490
499
499
505
505
506
512
512
517
518
508
505
499
495
494
496
496
497
496
497
497
497
499
500
500
502
502
499
501
501
502
501
502
503
501
503
502
503
504
510
510
515
509
503
503
503
506
565
558
451
486
500
500
507
507
507
511
513
514
515
507
508
499
490
493
494
494
495
496
497
497
497
498
500
500
500
501
502
503
500
501
502
501
504
503
504
503
504
505
512
512
515
509
502
503
503
505
559
570
452
483
500
498
507
504
506
510
512
512
518
510
510
501
494
496
496
496
496
497
497
500
499
499
499
499
499
499
501
500
502
502
503
503
503
502
503
503
504
502
510
509
514
508
500
503
502
503
552
578
457
480
500
498
508
505
508
507
513
510
516
510
511
501
496
495
498
497
499
496
497
498
499
498
498
500
500
501
501
502
504
503
502
504
503
503
504
504
504
504
512
510
513
508
503
503
504
502
545
583
461
476
500
498
505
506
506
507
513
511
518
513
507
499
492
496
496
496
496
497
499
498
499
496
499
499
500
501
503
503
504
504
504
502
503
501
502
504
502
504
511
508
509
508
502
502
502
502
539
590
466
471
497
499
504
505
505
506
513
514
518
516
511
501
493
497
497
497
498
499
499
499
499
499
499
500
503
501
501
502
502
502
503
502
503
503
503
502
504
504
512
511
511
510
506
502
502
502
532
590
478
468
497
499
505
505
508
506
513
512
518
515
508
499
493
495
494
497
497
497
496
498
494
499
500
502
500
501
501
502
500
503
502
501
504
502
503
505
503
504
512
512
512
509
507
503
503
503
526
592
488
464
497
497
503
506
507
506
514
513
519
516
508
500
495
495
497
495
499
498
498
498
500
498
499
501
500
499
501
503
501
501
502
503
502
502
502
504
503
503
510
510
509
508
507
501
500
503
519
589
495
459
494
498
500
506
506
507
513
512
518
515
507
500
494
496
496
497
496
497
497
498
499
499
499
500
498
499
501
502
501
503
501
502
503
502
504
505
504
505
508
509
510
510
509
501
501
502
515
583
507
455
493
497
497
504
504
505
512
511
517
517
508
502
495
497
496
497
497
497
497
498
498
499
500
501
500
499
501
499
501
501
501
502
501
504
501
505
504
502
506
510
511
512
511
501
502
503
511
579
522
451
492
500
499
506
505
506
514
512
518
516
509
503
496
494
495
497
497
495
498
496
498
498
499
499
499
499
500
501
503
502
502
503
502
503
503
502
504
503
508
511
509
514
511
503
501
502
510
573
536
452
491
498
498
504
505
505
512
510
514
515
506
504
498
495
495
496
495
495
495
497
496
499
498
498
500
501
500
500
501
502
502
503
504
504
504
505
505
504
506
509
509
515
509
501
503
502
506
567
548
450
488
501
500
507
505
505
509
511
513
516
508
505
499
495
496
495
496
494
497
497
497
497
498
497
500
498
500
501
501
500
501
501
503
502
501
501
502
502
502
509
510
514
509
501
502
502
507
561
559
451
486
499
499
509
506
505
511
512
513
520
509
507
500
497
498
496
497
499
498
500
499
499
500
500
501
500
502
500
502
503
502
501
504
502
504
504
503
504
504
511
509
514
507
500
501
502
505
555
571
455
482
501
499
508
505
505
508
512
512
518
511
508
501
494
495
496
498
499
500
500
500
501
500
500
500
501
499
501
501
501
501
502
500
502
503
502
503
502
503
512
511
515
511
500
503
502
504
550
580
457
478
499
499
507
507
506
509
514
512
519
513
510
503
496
495
496
498
498
498
498
500
499
500
501
501
502
502
502
502
504
503
504
503
504
504
504
504
504
504
512
510
512
507
505
502
501
504
545
587
464
475
496
499
506
509
508
507
511
512
519
515
511
501
493
495
496
498
497
497
499
500
502
501
500
501
502
503
502
503
505
503
505
503
504
503
503
505
506
506
514
512
512
510
504
505
505
502
536
590
472
473
499
499
506
505
507
508
513
514
519
517
511
502
496
496
497
496
497
498
499
500
501
500
500
501
501
502
503
503
505
505
504
505
506
506
506
506
506
506
514
512
512
510
507
504
505
504
533
594
481
468
498
499
505
506
509
508
514
513
521
518
508
501
493
497
496
497
498
498
498
499
500
501
500
502
503
502
503
504
506
504
504
507
506
505
504
508
507
506
515
513
514
512
510
505
504
506
528
593
493
463
496
501
504
509
508
508
518
515
522
519
511
503
496
497
497
499
499
499
501
501
500
500
502
502
503
503
504
502
503
504
504
504
505
507
507
505
506
505
514
513
512
513
512
507
506
507
523
588
502
459
495
500
502
510
510
511
515
515
522
519
512
504
496
496
498
498
500
500
501
501
502
502
501
505
503
504
504
505
505
506
505
506
505
507
505
506
508
506
512
512
513
515
513
507
507
508
520
584
517
457
496
501
501
509
508
507
517
515
519
520
510
505
499
498
499
498
500
501
502
500
502
502
503
504
505
504
503
504
504
507
506
507
505
506
505
507
507
509
512
513
512
516
511
504
504
504
515
580
529
456
495
501
503
508
509
509
516
516
523
521
511
508
502
501
501
502
503
503
501
502
506
504
504
502
503
504
505
506
507
507
506
506
506
505
505
505
507
509
509
513
515
517
513
504
506
505
512
574
542
453
494
503
503
511
509
510
516
516
520
521
512
508
502
498
499
499
501
501
502
501
501
501
504
502
504
504
505
506
506
507
505
507
506
506
507
507
506
508
508
513
515
520
513
505
506
506
510
569
555
454
490
505
503
512
509
510
512
512
516
519
511
511
503
498
499
499
500
501
503
502
503
503
505
504
505
504
505
507
506
506
507
508
507
507
509
509
507
508
508
515
514
519
513
504
506
507
510
565
568
458
489
503
502
512
511
509
514
516
516
519
510
511
504
499
498
499
500
502
499
503
503
500
502
503
503
502
504
503
505
506
507
506
506
506
509
507
507
507
507
514
513
519
512
504
505
505
508
558
577
458
485
504
504
510
509
508
512
517
515
521
514
510
505
497
498
501
499
500
502
501
502
502
503
504
504
504
504
504
504
505
506
505
505
505
505
506
508
508
506
513
512
516
512
504
505
505
505
551
585
461
481
501
502
512
510
510
510
514
515
521
515
511
502
495
499
497
498
499
499
498
500
501
501
501
500
504
503
505
505
506
505
505
504
506
505
505
505
504
505
515
512
513
510
504
505
506
505
543
589
465
475
501
501
509
508
508
508
514
514
521
516
512
505
497
499
498
499
499
500
500
501
501
503
503
501
503
503
501
502
501
502
503
504
504
504
505
504
506
506
513
513
513
510
505
508
503
504
536
591
472
470
498
498
504
507
507
507
513
512
519
518
511
503
495
498
498
499
499
499
499
500
501
502
502
503
500
501
503
503
503
503
504
507
505
498
504
507
504
504
512
509
509
508
505
504
503
503
528
592
481
466
497
500
506
508
508
508
515
512
520
516
510
502
494
496
497
498
497
498
498
498
498
499
499
502
502
502
502
503
502
502
503
504
504
504
502
501
504
501
511
510
509
508
506
502
503
503
525
589
492
462
496
500
501
505
506
507
515
514
520
515
509
501
493
494
496
497
497
498
500
499
496
498
498
501
499
501
501
501
501
502
503
505
505
504
504
504
504
505
512
510
511
511
508
502
503
501
514
586
504
458
493
498
500
507
505
506
514
512
519
517
508
499
495
495
496
497
497
496
499
497
499
499
498
499
500
499
500
503
503
501
501
504
504
503
504
504
506
503
508
509
508
511
507
499
500
501
512
579
515
453
492
497
497
506
507
506
516
512
518
517
508
501
496
495
495
496
496
496
499
499
500
500
501
501
500
502
500
500
501
500
501
503
503
503
504
502
502
503
509
511
511
512
509
502
502
503
511
577
528
452
490
500
499
507
507
505
513
510
516
517
507
502
497
493
494
495
496
496
498
498
498
499
498
500
500
500
499
500
501
502
500
503
502
501
503
504
504
504
505
511
509
513
509
500
502
502
508
570
539
451
489
499
499
506
506
506
510
510
516
517
509
506
498
496
497
498
498
496
499
500
499
497
500
500
500
500
499
499
500
501
501
501
502
500
503
503
502
503
503
510
509
515
509
501
502
501
506
564
553
451
486
499
501
508
506
506
510
510
514
518
509
509
502
495
496
497
497
497
496
499
499
500
499
500
500
499
500
501
501
502
503
502
502
502
503
504
502
503
503
510
510
515
510
501
502
503
505
558
567
451
484
499
499
508
507
507
509
512
513
515
509
510
503
497
496
496
496
497
498
498
499
499
499
499
500
500
501
504
505
504
505
504
504
504
504
504
503
504
506
512
511
512
509
501
504
503
504
551
575
455
480
501
502
509
508
508
510
514
513
518
513
509
502
496
498
498
500
501
500
502
502
502
501
502
502
501
501
502
502
502
503
504
505
505
503
505
506
504
505
513
511
513
510
502
503
504
504
548
586
462
478
500
498
506
506
505
506
513
514
517
513
510
500
494
496
497
497
500
501
500
500
500
502
502
503
504
503
503
503
504
505
504
505
505
505
505
504
505
504
515
513
512
509
503
504
504
503
540
591
471
476
502
501
508
508
508
509
515
516
522
518
511
504
495
497
497
501
499
499
500
503
501
503
502
502
503
505
503
504
505
505
504
505
506
505
505
509
504
505
515
513
513
512
506
508
507
507
536
593
478
472
502
503
508
510
509
509
515
516
523
521
512
505
497
500
500
500
501
501
500
500
502
501
503
504
503
506
505
507
506
506
506
507
507
508
508
507
508
507
515
514
514
513
509
505
505
506
529
594
486
470
500
503
506
510
510
510
518
516
520
521
512
504
498
498
499
500
501
501
502
503
503
503
504
505
504
506
504
505
504
505
505
504
506
508
506
507
508
509
516
516
516
514
511
506
505
507
526
594
499
465
500
502
506
511
511
511
518
515
523
523
514
505
498
500
500
502
500
502
503
503
503
503
506
504
505
507
506
508
508
508
507
508
506
507
507
507
508
508
514
514
514
516
514
508
507
508
521
587
514
461
498
504
506
513
510
511
520
516
524
522
515
506
500
504
503
502
501
503
504
504
504
505
505
505
505
504
506
506
507
508
508
507
505
507
504
507
509
507
512
516
516
517
515
509
509
508
519
585
525
458
498
504
503
511
512
510
519
516
524
523
513
510
503
502
501
501
499
502
503
503
505
505
507
506
506
507
505
506
508
507
507
509
509
508
509
508
509
509
510
515
516
519
515
509
508
508
515
577
537
457
497
506
507
515
514
513
519
518
525
521
514
510
504
502
501
502
502
504
505
504
505
505
506
506
506
509
508
508
509
510
509
509
509
508
508
510
511
510
510
517
514
520
515
509
509
509
515
575
552
455
494
504
504
514
513
511
518
517
521
523
513
513
506
501
503
502
502
503
504
504
505
505
507
505
505
508
506
509
508
510
508
509
511
510
509
509
509
510
509
515
519
522
517
508
511
510
512
568
563
458
492
507
505
513
512
512
516
518
518
524
515
515
507
500
503
502
502
508
505
504
505
505
506
508
507
507
508
508
508
508
507
508
507
511
509
508
511
510
511
518
518
522
518
509
510
512
512
562
576
463
491
506
504
516
514
514
517
518
518
524
517
517
509
502
504
506
506
505
505
506
506
505
506
506
505
508
508
506
508
509
510
507
509
510
511
511
512
511
513
519
518
521
515
506
510
509
509
559
585
465
487
508
506
515
513
512
514
517
518
524
518
515
507
501
501
503
502
505
504
505
503
505
506
507
508
506
509
508
511
507
508
511
509
510
510
509
511
511
511
520
519
519
517
510
510
510
508
550
594
470
483
507
508
513
512
514
513
521
519
526
520
515
508
502
502
503
504
504
504
506
503
506
507
509
508
508
510
511
510
511
511
510
511
511
513
511
510
512
510
518
519
518
517
512
510
511
510
546
598
477
479
505
506
514
513
515
513
521
519
527
522
517
508
500
502
503
505
504
507
505
509
508
508
506
506
507
507
508
509
510
509
511
511
513
512
512
511
511
511
520
518
519
518
512
511
511
511
540
603
487
478
506
509
513
515
516
515
522
522
527
524
516
509
504
505
506
503
505
506
504
505
506
505
508
509
509
509
509
510
511
512
512
511
512
512
511
512
512
514
521
519
519
519
514
512
510
511
533
600
497
472
504
508
511
516
515
514
522
522
529
526
519
510
503
505
506
506
507
506
507
507
508
507
509
509
509
511
510
513
511
512
512
512
514
515
513
513
513
514
522
522
520
520
519
514
512
512
531
597
507
469
505
508
510
517
515
517
524
523
528
526
519
513
506
506
507
506
508
507
508
507
510
511
510
509
510
511
512
512
511
512
512
513
514
514
514
513
513
515
520
521
519
521
520
513
513
514
524
594
523
466
504
509
510
516
516
516
524
523
529
529
519
512
507
507
508
509
508
508
510
509
510
510
511
510
512
512
513
512
514
512
514
514
514
514
514
516
516
516
521
522
521
524
521
514
515
514
524
590
536
463
504
510
511
518
518
517
526
524
529
528
519
515
510
508
508
509
508
509
510
509
511
510
512
512
513
514
514
515
515
513
514
515
513
514
514
515
515
517
518
522
522
526
522
514
513
515
523
586
549
462
503
513
512
520
519
520
525
523
529
528
521
518
512
508
508
508
510
509
509
510
510
511
512
513
514
513
515
515
517
516
515
515
518
515
516
517
516
519
518
524
524
527
523
515
515
515
521
579
561
464
502
513
512
520
520
518
522
524
528
529
521
519
514
509
510
510
511
512
512
511
512
513
513
513
514
514
515
514
514
513
515
515
515
517
515
515
517
516
516
525
524
527
523
515
516
515
518
574
572
464
497
512
513
522
519
520
522
524
525
530
523
522
515
511
510
510
510
509
510
511
512
511
513
513
515
513
514
515
516
515
515
516
516
517
517
516
516
517
515
525
523
529
524
515
515
515
518
567
583
468
494
512
513
521
519
520
521
525
526
530
523
522
515
508
508
509
509
510
511
511
509
511
512
513
515
512
514
513
513
514
514
514
515
515
516
515
516
516
516
524
522
525
520
513
514
516
515
561
592
471
492
511
510
518
519
519
521
525
526
532
524
524
512
507
508
511
508
512
512
512
512
512
512
512
513
513
515
514
515
516
516
515
514
514
517
516
516
517
516
523
524
524
520
513
514
514
515
552
597
475
487
511
512
518
518
519
517
524
523
529
525
522
512
504
506
508
509
509
510
512
511
511
511
513
514
515
514
512
514
514
516
514
514
517
515
517
515
516
516
524
521
521
519
513
512
512
514
547
602
483
483
510
510
517
516
516
518
524
523
531
526
520
512
505
506
507
509
508
508
509
511
510
509
510
512
512
512
513
513
513
512
513
514
513
511
513
512
514
514
521
521
522
519
516
513
512
512
541
602
492
477
508
510
515
517
516
517
523
523
528
527
521
513
505
505
508
508
507
509
509
510
510
510
511
512
511
511
514
513
513
515
514
515
513
513
512
513
514
514
522
520
522
518
516
513
513
512
535
599
501
472
506
508
511
517
516
517
525
523
529
528
520
512
505
505
505
507
506
509
508
508
509
509
510
511
511
511
511
512
512
513
512
512
512
511
512
513
514
515
520
519
521
520
518
512
512
514
529
597
511
469
507
508
508
517
515
516
525
522
531
526
516
510
504
507
506
506
507
507
506
508
509
510
508
510
510
511
510
512
512
511
512
514
514
515
514
515
515
514
520
522
521
521
519
514
511
511
523
591
523
464
502
508
510
516
517
516
524
520
527
526
519
511
505
506
506
505
506
506
507
510
510
510
510
510
511
512
512
511
510
511
513
512
511
513
513
514
515
513
518
520
520
523
520
512
512
514
521
586
536
462
502
509
509
517
516
516
524
522
527
526
519
514
507
505
506
506
507
507
509
510
509
509
510
509
511
511
513
512
512
515
512
513
514
513
516
514
513
513
517
521
521
524
522
511
514
513
520
582
551
460
500
510
510
519
517
518
523
523
528
528
519
517
508
505
508
506
507
509
510
511
512
511
512
512
512
512
513
512
512
512
513
513
513
514
513
514
514
516
517
522
521
528
521
513
514
515
519
577
563
464
499
511
511
518
517
517
524
523
527
529
518
519
513
508
509
509
509
510
510
511
512
512
512
513
511
513
513
513
514
515
515
514
516
515
517
515
516
517
517
527
524
530
520
514
515
518
519
573
577
466
498
511
513
520
518
519
522
524
527
529
521
520
515
507
508
509
510
510
512
512
513
511
512
513
513
513
513
516
516
517
515
517
517
516
516
517
518
516
517
525
526
528
523
516
516
517
517
568
589
471
495
514
512
522
521
521
521
527
526
531
524
524
515
510
510
513
512
510
511
513
513
514
514
514
516
515
514
516
515
515
515
516
516
517
520
518
518
517
519
527
524
528
523
516
518
517
520
564
597
477
492
516
515
523
523
521
523
528
528
533
528
524
516
510
511
511
512
511
513
515
513
515
515
515
516
516
516
518
518
518
519
519
518
519
520
520
520
519
520
525
527
526
524
518
520
519
520
557
605
484
491
517
516
521
523
522
520
527
526
534
528
523
516
512
511
512
515
514
515
515
517
517
517
517
517
518
519
519
519
517
519
519
519
519
520
520
521
521
520
527
527
525
525
520
519
521
518
550
608
492
487
515
515
521
522
523
522
531
528
536
533
527
518
509
513
513
513
515
515
516
516
517
516
519
517
519
518
518
519
519
521
519
520
522
521
521
522
523
521
530
529
528
527
523
519
521
521
545
608
500
482
515
518
520
524
525
524
532
529
537
535
528
519
512
513
515
515
514
517
515
515
517
518
518
518
519
519
521
521
520
521
521
520
521
521
522
521
519
522
527
528
529
527
525
520
519
521
539
608
512
480
513
516
519
526
524
523
531
529
537
535
528
519
512
513
513
515
516
516
516
518
519
518
519
520
519
519
520
520
520
520
521
520
521
521
522
522
522
522
528
530
528
527
527
521
522
523
534
603
523
475
513
519
519
526
525
524
531
530
535
535
527
520
513
515
515
515
518
515
518
517
516
518
518
520
520
521
521
520
521
522
522
522
521
523
523
524
521
523
526
528
527
530
528
521
519
522
532
600
537
472
511
518
518
524
524
524
532
531
536
534
525
522
515
514
516
515
516
518
519
517
518
518
517
518
518
518
519
519
520
521
520
521
521
523
521
523
522
522
525
529
527
531
528
520
521
521
529
593
550
470
511
517
519
526
528
525
533
531
535
535
525
525
518
515
513
515
514
516
518
520
517
518
518
518
520
518
519
520
522
522
521
520
522
521
522
522
521
522
523
529
529
533
528
520
521
521
527
587
564
469
507
517
516
525
526
524
531
531
535
536
527
525
518
513
514
514
514
514
517
517
516
516
517
517
518
519
519
519
519
518
521
522
522
522
523
521
520
522
522
529
530
532
528
520
521
522
524
580
573
468
503
517
517
525
524
523
530
531
532
536
528
527
519
514
514
514
513
516
515
517
516
519
517
518
518
519
520
519
520
521
519
520
520
521
521
522
521
521
523
529
528
532
527
518
520
521
522
576
585
472
502
517
516
526
524
524
528
530
531
535
527
528
520
514
514
515
515
516
516
515
517
517
517
517
518
519
519
521
519
520
520
519
520
520
521
522
521
523
522
531
530
534
528
519
520
520
521
568
594
473
498
519
517
526
525
524
524
529
528
535
529
527
520
514
514
518
517
516
516
517
517
518
517
518
519
519
517
520
519
519
520
519
520
521
521
521
521
522
522
529
528
528
527
519
521
521
520
561
603
480
492
516
517
524
523
523
525
531
531
537
532
528
520
513
513
515
514
515
517
517
518
518
518
519
519
517
519
520
519
520
520
520
521
521
520
522
520
522
523
530
528
527
525
521
519
517
519
556
607
487
493
519
518
524
524
524
525
532
531
537
533
529
519
511
515
516
516
514
517
518
519
520
519
521
520
520
522
519
520
521
520
521
522
521
521
521
523
523
522
530
527
527
526
520
520
520
520
550
608
494
487
514
518
520
522
522
522
530
529
535
534
527
519
514
515
514
515
517
517
516
517
517
519
519
519
518
521
521
520
520
520
520
520
523
523
523
521
523
522
530
528
527
526
524
520
520
523
546
609
505
481
515
517
521
524
525
525
532
530
537
535
526
517
514
514
514
515
515
516
517
518
518
518
518
519
520
520
521
522
521
520
521
521
522
522
522
523
523
522
529
528
528
526
527
522
522
523
539
607
516
478
512
516
517
524
524
525
531
530
537
535
527
519
511
514
513
513
514
515
515
516
516
517
517
518
517
519
518
518
520
520
520
521
522
521
522
521
521
522
528
527
526
527
525
520
521
521
533
601
531
475
513
518
517
525
525
526
531
530
538
534
525
519
513
515
514
516
515
516
517
517
516
518
517
518
518
519
518
520
518
522
520
520
520
519
520
522
521
521
526
527
526
529
527
520
519
521
529
597
540
470
511
518
517
524
524
524
531
530
535
535
527
521
515
513
514
514
515
516
517
518
518
519
518
518
519
519
521
521
519
522
519
520
519
519
521
521
523
521
525
527
532
532
526
520
521
520
527
590
553
468
509
518
517
525
526
523
531
530
535
535
526
523
517
511
513
515
515
515
517
516
515
515
516
516
516
519
519
519
519
519
521
520
521
521
520
522
523
522
522
528
529
532
527
518
519
520
525
584
564
467
506
518
517
524
524
525
531
530
532
534
525
525
519
514
512
515
513
515
516
518
517
518
517
517
519
519
519
520
519
519
520
519
521
519
519
520
521
516
520
527
525
533
527
518
519
521
524
581
579
471
508
517
517
525
525
525
527
530
530
534
526
527
517
514
511
513
512
513
514
514
517
519
515
518
519
519
519
520
521
520
520
521
521
521
520
520
523
522
521
529
527
534
526
518
520
520
521
573
589
472
498
518
518
526
524
524
525
529
529
535
526
527
518
512
513
515
513
514
515
516
516
516
516
519
519
517
517
518
518
519
518
518
519
519
519
519
519
521
520
526
526
529
524
519
520
521
519
566
598
475
497
516
516
524
523
523
522
529
528
534
527
525
519
513
513
515
513
514
515
513
516
517
516
517
516
518
517
519
519
519
521
522
522
521
520
521
522
521
522
527
526
528
524
519
519
519
521
561
603
479
492
516
516
525
523
524
522
529
529
535
531
525
519
511
512
514
515
516
515
516
516
516
516
518
518
518
519
518
519
520
518
518
518
520
519
520
520
519
520
529
528
526
525
519
519
519
519
552
608
487
489
515
516
523
524
521
522
529
529
537
530
525
517
511
513
513
514
514
515
515
516
517
517
516
517
515
517
517
517
519
519
520
519
518
519
520
520
521
520
524
526
526
526
518
519
519
519
546
608
495
484
513
515
519
522
523
523
529
529
537
533
526
518
512
514
514
513
515
514
515
515
516
517
516
518
518
518
518
518
519
520
521
521
522
521
522
521
521
522
528
527
526
526
523
519
518
518
540
607
505
479
513
515
520
524
524
523
529
530
535
533
524
515
512
511
512
512
512
515
513
515
515
514
516
517
518
516
517
517
518
518
519
520
521
521
520
521
523
521
528
527
527
528
524
521
520
519
534
603
516
476
510
516
519
523
521
522
530
529
535
533
524
517
510
511
513
512
513
513
514
516
517
515
517
517
518
518
519
518
516
520
519
519
519
519
520
518
517
520
526
526
527
529
526
517
520
519
534
598
528
471
509
515
516
522
521
519
531
529
537
533
526
519
512
511
513
512
512
513
512
513
515
515
516
516
518
518
517
519
518
518
518
518
521
520
521
522
522
520
523
526
526
529
526
519
519
519
529
596
543
469
509
516
517
525
523
524
529
529
535
534
523
519
513
512
513
512
514
514
515
513
516
517
517
518
518
518
517
518
520
518
519
521
519
521
520
519
521
520
522
530
528
530
526
518
518
519
525
588
556
466
508
516
516
525
522
523
530
532
533
533
526
522
516
512
512
513
515
514
514
515
514
516
515
515
516
519
518
519
517
520
516
519
519
519
521
520
520
520
522
528
528
531
526
519
518
519
524
584
565
469
505
517
518
524
524
525
529
528
532
533
525
524
517
512
512
513
512
515
514
513
516
517
518
518
517
519
518
518
517
520
519
520
519
523
521
523
521
520
522
528
527
533
526
518
519
520
523
580
576
469
502
517
516
524
523
523
526
530
531
534
526
525
519
512
512
512
513
515
515
515
516
516
516
516
518
518
519
519
521
520
520
521
521
524
519
519
521
520
520
525
526
530
527
517
519
519
521
571
587
471
498
518
515
524
523
523
525
528
530
534
528
525
517
512
514
515
516
516
516
514
518
516
518
517
519
519
518
520
522
519
518
518
520
519
520
520
519
520
520
527
526
528
526
519
520
521
522
565
599
477
495
519
516
525
523
524
525
529
526
534
528
526
520
512
512
512
514
513
516
517
517
517
519
518
519
519
521
519
523
521
520
519
524
520
521
520
521
522
519
528
528
526
523
519
519
519
520
558
603
482
492
516
515
522
523
524
523
533
528
536
531
528
519
512
513
514
514
513
512
516
516
516
518
516
517
517
518
520
518
520
522
520
522
520
521
520
520
522
520
529
528
529
527
521
521
520
519
553
607
488
488
515
515
522
526
525
524
530
528
536
532
525
516
510
512
511
514
514
514
516
517
517
518
517
519
517
517
519
519
520
520
522
521
519
521
521
522
521
520
530
530
528
527
523
520
521
522
547
607
496
484
513
515
521
524
523
522
530
530
536
534
524
516
510
511
514
513
514
513
514
517
517
517
517
516
516
520
519
520
520
519
519
520
518
519
520
521
522
522
529
528
527
526
523
522
521
518
539
606
508
478
513
515
520
523
523
522
531
529
536
534
525
519
511
513
512
513
515
513
515
515
516
516
517
519
517
517
516
519
518
522
520
521
522
520
520
520
519
520
528
526
525
526
525
518
518
520
534
604
516
474
512
516
516
524
523
522
532
528
535
532
524
519
510
511
511
516
515
514
514
515
515
518
517
516
518
517
517
517
518
517
518
520
520
522
520
519
520
519
525
526
526
526
524
522
518
518
530
596
531
469
508
518
516
522
522
521
527
528
533
531
526
519
512
512
512
511
512
514
514
518
515
515
515
515
516
515
515
516
518
518
519
520
520
519
517
519
520
520
523
526
524
528
524
517
518
518
526
591
546
467
509
515
515
521
522
524
530
527
532
532
523
520
514
511
514
512
512
514
513
514
515
515
515
518
516
517
515
517
514
516
515
516
520
516
520
518
518
519
519
526
525
531
523
516
517
516
520
585
555
465
504
513
513
522
520
520
527
525
530
532
524
520
515
511
511
510
512
512
514
513
512
512
512
515
514
515
515
518
517
517
516
516
518
518
517
518
519
517
519
524
524
528
523
515
516
518
520
578
567
465
503
513
513
521
524
520
524
526
527
531
522
521
514
509
510
511
510
511
512
510
511
511
514
512
513
513
515
515
515
515
514
518
516
517
515
517
515
517
517
522
522
527
522
513
514
516
516
572
576
468
497
513
513
520
518
519
522
524
526
529
522
519
514
507
508
509
510
510
510
511
512
512
512
513
515
515
516
514
514
515
516
516
516
516
515
518
515
516
515
523
523
526
520
512
516
513
516
565
585
467
493
511
512
520
517
517
519
523
524
528
522
522
514
508
509
508
509
510
510
511
511
512
511
511
510
513
513
513
514
514
513
515
513
516
514
515
516
515
517
522
523
524
521
511
514
513
512
559
592
469
488
510
510
517
517
516
515
524
522
530
523
521
512
504
506
509
508
508
508
510
510
511
511
510
511
512
514
514
513
512
512
514
514
513
513
511
513
516
515
523
524
524
520
513
516
512
512
551
600
475
486
511
510
517
517
516
517
521
520
527
523
520
510
504
508
507
507
506
508
508
509
510
510
511
512
509
511
511
511
510
513
513
512
514
513
515
515
514
512
523
519
520
518
512
512
514
514
544
601
484
479
509
511
515
516
516
514
523
522
529
526
520
508
504
507
505
508
508
509
508
510
511
509
510
509
510
512
513
513
513
513
514
512
512
512
512
512
512
515
522
521
520
516
517
513
514
512
538
602
493
477
508
511
514
517
516
518
524
522
529
526
519
510
503
506
507
507
507
508
507
508
508
509
509
510
510
510
511
509
512
512
514
512
514
513
515
515
514
515
522
521
522
521
519
514
514
513
535
601
505
472
506
509
510
518
515
515
524
522
529
526
518
511
505
506
507
507
506
510
509
510
510
510
512
510
509
512
512
513
513
514
515
513
515
514
515
513
516
515
520
521
521
521
522
514
513
515
528
595
517
465
506
508
510
516
517
517
522
523
528
527
520
514
508
507
507
508
508
507
510
510
511
511
511
510
511
512
512
512
513
513
513
515
516
516
517
512
518
514
520
522
521
524
522
515
513
514
524
592
530
466
505
511
512
519
520
519
525
523
528
529
520
513
507
505
507
509
508
508
508
510
509
507
509
511
512
512
512
512
512
512
512
513
514
516
515
514
516
518
518
521
523
526
523
515
516
516
522
588
544
465
506
512
511
520
520
518
526
523
532
530
521
516
511
509
508
508
506
509
509
510
509
510
513
512
514
512
515
513
514
514
516
518
516
516
515
516
517
517
518
523
525
527
522
512
517
516
519
582
558
463
503
513
512
518
520
518
526
525
531
531
522
517
513
510
508
509
510
510
510
511
508
512
513
514
515
516
515
516
517
515
516
517
516
516
518
518
517
518
515
524
520
528
522
515
515
515
519
577
572
466
502
513
512
521
519
519
523
524
529
529
522
520
514
510
511
507
510
510
511
511
512
513
513
514
513
514
513
514
515
515
515
516
518
517
518
518
518
518
519
526
525
531
525
516
516
517
518
571
581
467
497
513
512
523
521
520
523
523
525
530
523
524
515
509
511
510
513
512
511
512
511
514
514
513
514
513
513
516
515
514
517
516
516
516
517
519
519
517
518
525
526
528
522
516
517
518
519
567
591
472
494
515
513
520
519
521
520
526
527
533
527
523
516
510
511
510
510
511
511
512
512
515
514
516
516
515
514
516
516
517
516
517
518
518
517
519
519
518
518
527
526
528
524
517
516
516
517
561
598
476
492
514
513
522
519
522
522
527
525
533
526
523
516
508
508
511
512
512
514
513
512
513
514
514
515
515
518
517
517
516
517
517
518
519
519
519
520
518
518
526
527
526
522
517
515
517
516
552
603
482
488
513
515
519
520
519
518
525
525
532
528
523
515
510
510
510
512
512
514
514
512
514
516
515
515
515
516
515
517
518
517
519
519
519
517
518
519
518
519
527
525
525
522
518
518
518
519
548
607
493
484
513
517
517
521
520
519
528
528
532
531
523
515
507
509
509
510
511
512
512
513
512
512
516
515
516
518
516
516
516
516
517
517
516
518
519
519
518
519
528
527
526
523
520
519
518
518
539
606
501
479
512
513
519
520
521
518
527
526
533
531
524
515
507
510
511
510
512
511
511
512
514
512
514
515
515
514
515
518
515
515
517
517
516
517
518
518
518
517
524
524
525
523
522
516
518
516
534
602
511
474
508
515
514
521
521
520
529
527
535
531
523
515
510
512
511
511
511
514
512
512
513
514
513
512
513
516
516
517
516
518
516
517
516
518
518
517
519
518
524
523
523
524
523
518
518
517
530
598
524
470
506
512
513
519
520
520
527
525
532
529
521
514
508
510
511
511
510
511
511
512
514
515
514
513
512
514
515
515
517
516
514
516
515
514
516
516
519
520
521
524
522
526
524
515
514
515
526
592
535
467
506
513
514
520
520
519
527
525
531
530
523
517
510
510
511
510
511
512
512
511
513
513
514
514
514
515
516
515
515
515
515
516
515
517
517
517
517
517
521
523
524
527
522
515
514
516
523
586
549
464
505
512
513
521
520
520
527
527
531
530
521
518
512
507
509
511
512
512
511
510
512
511
512
513
514
514
513
515
515
517
514
516
515
516
516
516
516
516
517
524
523
528
523
514
515
517
522
582
560
463
502
512
512
520
519
518
525
524
526
530
520
520
513
508
509
509
510
511
512
513
513
512
513
514
516
515
514
516
513
515
518
518
517
518
517
518
518
517
519
525
524
530
524
515
516
517
518
576
574
466
499
513
514
522
520
520
523
524
527
529
522
522
515
508
511
509
510
512
512
514
514
515
514
514
514
514
514
516
515
515
516
515
516
516
516
516
515
518
516
524
524
529
523
514
515
515
516
567
581
467
496
514
515
522
520
521
524
525
526
531
524
524
514
509
510
512
511
511
511
511
512
513
513
512
512
513
513
515
515
516
516
516
517
516
516
516
517
518
519
527
526
529
522
513
517
516
518
564
593
472
494
515
514
522
521
519
521
527
526
531
526
521
513
507
508
509
510
509
511
511
511
514
516
516
515
514
515
515
515
516
516
516
516
516
517
515
518
516
517
525
526
525
523
516
516
517
518
558
601
476
490
512
515
522
523
522
521
528
526
533
528
525
517
509
512
511
511
511
512
513
513
513
514
515
515
516
515
516
518
517
518
517
519
518
518
518
519
517
518
526
527
527
522
517
515
519
519
553
607
486
487
511
513
519
521
521
520
527
526
532
530
524
514
508
511
511
510
512
513
512
514
514
514
516
515
516
518
518
517
517
516
518
517
518
518
521
520
519
521
529
526
525
526
521
520
519
520
547
607
493
483
512
515
519
522
520
521
530
528
535
531
525
517
508
510
511
513
513
514
514
515
515
516
517
516
518
518
517
517
518
518
520
520
520
521
519
520
520
519
529
527
524
525
524
520
519
519
540
607
505
481
513
515
519
525
522
522
527
528
534
535
525
518
510
511
511
514
515
516
515
514
515
515
517
519
518
518
519
519
519
518
519
519
520
522
521
520
520
522
528
528
527
527
525
518
521
519
536
604
516
476
510
516
517
523
523
522
531
529
536
533
525
517
511
512
514
512
513
515
513
517
516
516
517
516
518
517
520
521
520
520
521
521
522
521
520
522
522
522
526
527
528
528
526
518
520
519
532
600
529
473
510
517
517
524
523
525
532
531
537
535
528
521
512
513
513
514
515
515
515
515
517
518
518
519
519
519
520
521
522
520
522
520
522
521
520
521
522
523
524
527
529
530
528
519
521
521
528
595
542
470
511
517
518
526
524
524
534
528
536
535
526
522
516
515
515
513
515
515
515
518
518
518
519
517
517
518
520
519
519
518
519
520
519
520
519
519
520
521
524
529
528
532
528
520
520
522
526
590
555
469
509
518
517
525
525
524
531
530
536
536
526
524
517
514
514
516
517
516
515
518
517
519
520
519
520
518
519
521
520
519
520
521
523
521
521
523
522
521
523
528
529
535
527
520
520
520
524
585
568
468
505
517
517
525
523
521
528
530
533
535
526
525
519
513
513
514
514
516
516
516
517
517
516
518
519
518
519
521
520
521
520
519
520
522
521
523
522
522
521
528
529
534
527
519
521
519
523
579
579
472
504
518
519
526
525
524
529
529
532
537
529
527
519
514
513
515
517
517
516
515
516
516
516
518
518
518
519
518
520
520
521
520
519
521
520
521
520
522
521
528
527
534
526
519
521
521
522
574
589
472
501
517
517
526
524
524
527
530
531
535
529
528
520
514
514
515
515
516
515
518
517
516
516
517
518
520
520
520
520
520
520
521
521
521
521
523
523
521
522
528
527
532
528
521
521
521
522
567
598
478
497
519
518
527
527
525
526
531
528
537
530
528
519
513
514
514
513
515
518
515
516
517
518
518
518
520
518
519
519
520
521
521
522
523
521
523
521
521
522
530
529
529
526
519
520
521
521
560
604
482
493
516
518
526
524
525
526
530
530
537
532
529
520
513
515
516
515
516
516
516
516
516
517
519
518
518
518
520
520
520
521
520
520
520
519
519
520
521
521
529
526
528
526
521
521
522
522
555
609
489
488
517
518
521
523
523
524
532
529
537
535
528
519
513
514
515
513
515
516
515
516
518
517
518
516
517
518
518
519
520
521
521
521
520
522
519
520
521
521
530
528
527
525
523
519
521
520
549
611
499
487
515
516
520
524
525
524
530
531
536
535
527
519
512
515
515
514
516
515
515
517
517
518
518
518
517
520
520
522
521
519
518
520
522
522
521
522
522
522
530
529
527
525
524
520
520
521
543
607
506
481
515
516
520
522
523
523
531
530
535
533
527
520
511
514
514
515
515
517
518
518
517
518
516
518
519
520
518
518
518
521
520
521
519
520
519
519
520
520
528
527
527
526
526
521
520
521
537
605
518
478
511
517
518
523
524
523
531
530
537
535
527
518
513
513
514
511
514
513
516
514
517
517
517
518
519
518
519
517
518
518
519
519
520
521
521
519
520
520
527
529
527
528
527
519
519
522
531
600
530
473
512
516
518
524
523
524
531
529
536
534
525
520
511
512
513
514
513
513
514
515
517
518
519
519
518
517
518
518
520
519
520
520
521
519
521
519
521
520
524
527
528
528
527
519
518
518
527
593
541
469
510
517
515
524
523
523
531
530
535
533
524
520
514
512
511
513
514
515
514
515
516
516
516
518
516
518
519
519
517
519
519
520
520
518
521
519
520
520
523
526
525
530
527
518
520
519
525
587
555
470
508
516
514
522
523
522
528
527
533
532
524
520
513
510
511
512
512
514
514
513
515
516
516
516
517
516
518
518
518
518
517
519
519
519
521
521
521
521
520
525
527
531
523
518
519
520
524
584
566
468
504
517
515
524
525
524
528
527
531
533
525
524
515
511
512
512
513
513
512
513
514
515
516
515
515
516
516
516
516
517
517
518
518
518
518
519
520
519
520
526
528
532
524
516
516
517
520
576
575
468
500
515
515
524
522
521
524
529
527
532
523
524
515
510
510
509
511
513
513
513
514
515
513
515
515
515
517
516
515
517
521
518
516
518
519
519
519
520
520
527
527
530
525
519
518
519
522
572
586
472
498
516
515
523
521
522
523
526
526
532
524
523
517
508
511
510
512
512
512
512
513
513
515
514
514
515
516
515
515
515
515
516
515
517
515
516
517
519
518
527
526
527
524
514
517
516
518
564
595
473
492
516
514
522
522
520
522
526
527
531
526
522
516
510
510
511
512
513
513
513
513
514
515
514
515
516
516
516
516
516
515
515
515
517
518
518
519
518
520
525
524
525
520
516
517
515
517
556
601
479
490
513
514
521
521
521
522
526
527
532
529
523
515
509
510
510
510
511
512
513
515
514
515
515
515
515
515
515
517
516
517
517
518
518
518
518
518
519
518
527
523
524
521
515
515
516
517
550
606
483
485
513
513
516
520
520
521
527
526
533
528
523
515
508
511
509
511
512
512
512
514
515
514
515
514
516
516
515
515
516
517
518
516
517
516
516
516
517
518
527
524
524
524
519
515
518
516
543
606
493
481
511
512
518
521
521
520
527
526
532
532
523
515
508
509
511
511
511
512
513
515
513
514
515
514
515
517
517
518
517
516
517
515
516
514
517
521
518
520
525
524
524
523
520
516
517
516
537
604
504
476
511
513
514
519
519
519
528
525
532
530
521
513
505
510
509
509
510
511
512
512
514
512
513
514
513
515
514
515
516
514
516
515
517
515
516
518
518
518
524
524
523
523
522
516
515
517
533
600
516
472
508
513
514
521
520
522
528
526
531
531
523
515
510
508
510
509
512
513
512
512
512
514
512
513
514
513
513
514
514
515
515
516
515
518
517
517
517
519
523
525
523
524
523
516
516
513
528
595
527
467
505
512
512
520
519
518
527
525
533
529
522
515
510
511
509
511
512
512
513
513
513
513
514
513
511
515
513
514
515
515
515
518
517
517
516
516
517
518
522
524
522
527
522
514
516
515
523
590
540
466
506
512
511
519
518
518
526
523
530
528
520
516
510
509
509
508
507
510
509
510
511
513
513
513
514
512
515
515
513
515
515
514
516
516
515
517
517
516
519
524
522
526
523
513
515
515
521
585
551
463
502
513
514
519
519
519
525
525
529
528
519
518
511
506
508
508
510
508
511
511
509
511
510
511
512
512
513
514
512
514
513
515
514
517
516
516
516
515
517
523
524
527
520
512
514
514
519
577
562
463
500
512
511
518
517
518
524
524
527
529
520
520
513
508
504
510
512
511
509
511
512
511
513
512
512
513
512
514
514
512
514
514
515
514
514
513
514
514
517
524
524
529
521
514
513
515
517
573
575
462
496
511
511
519
518
519
521
523
526
528
521
521
513
507
507
507
508
511
509
510
510
511
511
513
514
512
512
514
513
513
513
512
515
513
515
515
515
514
515
523
521
525
520
512
513
513
512
564
580
465
492
510
510
518
517
518
519
523
523
528
519
518
512
505
507
506
508
509
509
511
509
510
511
511
510
513
513
512
511
514
513
514
513
514
513
514
513
515
515
522
521
523
519
512
514
515
514
560
593
470
490
511
511
519
517
516
519
522
523
526
520
521
511
506
507
507
507
508
508
509
509
508
511
511
510
510
510
510
511
513
511
510
511
513
513
515
515
514
514
521
520
520
519
512
512
511
511
550
597
475
483
510
509
517
516
514
515
522
521
528
524
518
510
503
508
504
506
506
507
507
508
509
510
511
511
510
512
511
513
512
515
513
513
514
514
515
514
515
514
522
520
522
519
512
513
512
517
544
601
482
481
508
508
513
514
514
516
525
520
528
526
519
510
503
504
505
506
505
507
509
507
507
508
511
509
511
511
510
513
513
513
515
514
514
514
514
513
513
514
523
522
522
519
515
514
511
513
540
602
490
477
507
508
511
514
515
516
521
521
528
526
519
508
503
505
505
505
507
504
506
508
507
508
509
510
509
509
511
510
512
512
512
512
512
512
513
512
512
512
519
519
521
519
517
514
511
513
534
600
501
470
504
509
510
516
515
515
523
521
527
525
519
509
504
505
505
507
507
507
507
507
507
509
508
509
510
511
510
512
513
511
510
512
512
513
510
510
511
511
517
518
519
519
519
512
512
512
528
596
513
466
502
509
508
515
514
515
523
519
528
526
516
510
503
504
505
506
505
507
508
508
509
509
509
509
509
510
511
512
511
512
511
511
513
513
511
512
512
514
519
519
519
521
519
512
512
512
523
589
523
463
503
510
508
515
514
513
522
521
528
525
516
511
505
504
504
504
504
505
505
507
507
510
509
511
510
511
511
510
511
511
511
511
511
510
512
510
510
511
516
516
517
520
516
509
510
511
518
584
537
460
500
507
508
514
515
514
519
520
527
526
518
514
508
505
504
504
505
506
507
507
507
508
507
510
508
510
509
510
511
511
512
512
512
512
511
513
511
513
515
519
518
520
516
509
507
510
516
577
547
457
496
507
507
515
513
513
520
520
525
524
517
514
508
504
504
508
506
507
505
507
506
508
508
508
508
510
508
510
508
509
509
510
511
512
511
512
512
513
513
519
517
523
518
508
510
508
513
571
561
460
497
508
508
516
514
514
518
520
521
524
516
514
510
503
504
504
505
505
504
507
506
507
508
508
508
510
510
511
510
508
509
510
511
510
512
511
512
513
511
520
518
524
517
508
508
509
512
565
571
460
490
508
507
514
513
513
517
518
519
525
515
516
509
503
505
502
505
505
506
507
508
508
508
507
508
507
508
509
509
511
509
510
511
510
511
511
511
511
511
518
518
520
516
509
509
509
510
560
581
463
488
508
508
514
513
514
513
519
518
524
519
518
509
503
503
504
505
506
504
505
506
506
507
506
507
507
508
508
509
509
510
510
508
509
510
509
511
510
510
519
516
519
516
509
509
509
510
553
589
466
483
507
506
512
513
512
514
519
519
525
522
518
508
503
504
503
504
504
506
505
506
505
505
506
506
506
509
508
508
510
510
511
509
509
509
510
511
511
509
517
516
515
515
509
510
509
511
547
595
472
479
505
504
511
511
511
511
519
518
524
521
516
507
500
502
502
503
504
505
506
505
506
505
507
508
507
508
508
507
509
507
509
511
508
507
509
509
509
510
518
518
516
514
510
509
510
508
540
598
483
476
505
505
510
512
513
513
521
518
524
521
515
506
500
502
503
503
504
504
504
505
507
506
507
508
507
507
510
509
509
509
510
508
509
512
510
510
511
510
518
516
516
515
513
508
507
507
533
597
489
470
502
505
507
512
512
512
518
517
528
523
512
505
498
502
501
503
502
504
504
505
504
504
505
506
504
507
507
506
507
508
509
509
509
510
512
510
509
510
516
517
515
515
515
509
509
508
528
596
500
467
502
505
508
512
511
512
518
516
524
522
514
505
500
502
502
500
504
505
503
504
504
504
505
506
508
508
508
508
506
507
509
509
508
508
510
510
509
511
516
517
516
515
515
510
508
508
521
590
512
462
498
503
504
512
511
513
519
517
526
522
513
507
499
500
502
501
502
504
503
505
502
505
500
502
505
507
506
506
508
507
506
506
506
506
507
509
509
509
515
515
514
515
514
506
506
508
518
586
523
459
500
507
508
512
511
511
519
516
520
521
512
508
499
501
502
502
501
503
504
505
505
504
503
506
505
507
508
508
506
507
506
508
507
507
508
507
507
509
512
516
515
518
515
508
508
508
515
579
536
455
496
504
504
510
511
510
517
515
521
521
512
508
501
499
499
500
501
502
503
504
502
505
504
504
505
506
506
507
507
507
506
506
508
506
507
509
508
508
508
514
512
518
513
504
505
505
513
573
548
456
492
502
503
511
511
510
515
515
521
520
511
510
504
498
497
500
500
501
503
503
502
503
503
503
505
504
506
504
505
505
503
505
505
506
509
507
507
506
508
513
512
517
511
503
505
506
509
564
558
455
489
502
502
511
510
509
514
514
517
521
512
513
504
498
498
496
498
500
500
503
502
503
504
503
503
505
505
505
504
505
506
507
506
506
505
506
506
507
508
513
514
519
511
502
504
503
506
559
570
456
486
502
502
509
507
508
511
515
514
519
511
511
503
497
498
499
499
498
502
502
501
500
501
503
501
502
502
504
503
504
502
503
503
505
504
504
506
506
506
513
511
515
510
502
505
504
504
553
579
458
483
499
499
508
510
508
508
512
513
518
512
510
504
496
497
499
499
500
500
502
501
502
503
503
502
501
502
504
502
503
504
503
505
506
504
504
503
504
504
512
510
512
510
502
503
503
503
546
585
463
477
501
500
509
507
507
506
512
510
520
513
508
502
495
497
499
497
497
499
500
501
500
501
502
502
503
501
503
502
503
504
504
503
504
504
504
505
504
504
511
512
513
511
503
504
505
503
540
590
467
471
499
500
506
507
507
506
515
513
519
515
510
501
496
496
499
497
499
499
498
500
501
500
500
501
502
503
503
504
504
503
503
505
504
504
503
503
505
506
512
512
511
508
504
503
503
504
534
591
478
469
499
502
506
507
508
507
513
513
519
519
510
501
494
496
495
497
496
499
499
500
500
502
502
502
502
503
503
502
502
503
503
504
508
505
507
505
506
506
513
510
511
511
507
501
503
504
528
594
488
464
497
501
503
507
507
508
513
514
520
517
509
501
494
497
496
497
499
499
501
499
500
501
500
499
501
501
500
501
503
503
503
503
502
504
504
504
506
507
512
512
511
509
509
505
505
506
521
589
499
461
495
501
503
508
507
508
515
514
521
520
511
503
496
497
497
498
498
498
498
498
500
500
500
501
502
500
501
502
503
503
503
504
502
503
503
504
503
504
511
509
510
511
510
502
503
503
517
583
510
458
495
497
501
507
507
506
516
512
520
519
509
502
496
498
496
497
498
498
499
499
501
500
499
500
502
502
503
504
504
504
505
503
504
504
504
505
505
506
509
511
513
514
512
503
504
504
513
580
523
454
493
499
499
508
507
504
513
511
519
517
506
501
495
496
495
497
498
499
499
500
498
499
500
500
502
502
502
502
501
502
502
504
503
503
504
505
504
505
509
511
512
514
511
502
504
503
509
572
535
453
491
500
500
508
507
507
514
512
519
518
508
506
498
496
497
494
496
497
496
499
499
499
499
501
501
501
502
502
502
502
502
503
504
505
503
505
506
504
505
512
512
514
510
501
503
504
508
566
547
451
488
502
500
509
506
506
512
513
517
517
507
508
503
496
496
497
497
498
498
500
498
501
500
500
500
500
499
500
501
502
503
503
502
503
503
503
503
505
503
511
511
516
510
501
503
505
507
563
559
451
486
499
499
508
506
507
512
513
515
518
507
508
502
494
497
496
497
496
497
498
498
498
500
498
500
503
501
502
503
503
503
502
503
504
503
505
502
503
505
510
509
515
509
499
503
502
504
558
569
453
483
502
503
508
507
506
509
513
513
519
510
511
501
496
496
497
497
497
498
498
501
499
499
500
500
499
501
503
500
501
500
501
502
502
504
504
505
503
503
510
509
511
507
501
502
502
504
551
577
458
478
499
500
509
505
505
507
511
511
517
511
510
501
494
495
495
497
498
498
499
500
498
499
500
501
499
501
501
504
503
503
502
502
503
504
503
502
504
503
511
509
509
509
501
502
503
503
544
586
461
472
499
499
507
507
506
505
512
509
517
514
506
500
494
495
496
497
497
499
499
497
497
498
497
500
500
501
501
501
501
500
502
502
502
502
503
505
503
503
510
510
508
507
502
501
502
503
538
592
471
472
498
500
505
507
509
506
511
510
518
516
511
500
494
498
498
496
498
497
498
496
497
499
501
499
501
502
500
499
502
501
502
503
502
503
499
502
502
502
512
511
511
507
503
501
502
502
530
591
478
467
498
499
503
504
505
506
512
510
519
516
510
503
495
496
496
496
498
499
498
499
499
499
501
501
500
501
502
502
502
503
503
502
502
503
504
503
505
503
510
509
510
509
504
502
503
503
524
590
488
464
497
499
501
509
505
506
515
512
521
518
510
501
497
497
496
497
495
497
499
498
497
499
498
500
500
500
500
499
501
504
503
502
503
503
503
503
505
502
512
511
512
510
509
500
502
503
520
587
501
459
493
499
500
506
506
505
513
513
520
516
508
501
494
494
495
496
497
497
499
496
498
499
499
500
500
503
501
503
503
503
502
503
503
504
506
503
504
503
510
512
511
512
512
505
502
502
516
584
511
457
494
500
502
507
506
507
514
511
519
518
507
502
494
494
495
497
497
496
499
499
500
502
502
500
502
503
503
503
505
506
504
505
505
505
504
503
504
503
510
511
512
512
509
504
503
503
510
579
525
452
493
501
500
506
506
506
517
513
519
518
509
503
496
495
496
499
498
499
498
500
499
499
501
499
502
501
500
501
502
501
503
504
503
507
504
505
504
505
506
512
509
512
511
502
503
504
510
573
538
453
492
503
500
508
506
506
513
512
518
519
508
507
499
496
497
498
498
499
499
501
500
500
500
501
501
502
502
502
503
503
504
504
504
503
504
503
502
507
506
512
511
513
508
502
503
503
508
567
552
451
488
500
500
508
505
504
511
513
518
519
510
510
502
498
493
498
500
499
499
499
500
500
502
504
502
502
504
503
501
503
502
504
504
503
504
505
504
505
505
513
512
516
511
503
504
504
509
562
564
454
484
500
501
511
507
507
511
513
514
520
511
510
501
497
497
497
499
500
500
499
501
501
501
500
502
504
503
504
503
505
503
504
504
505
506
505
504
506
507
512
512
515
511
501
503
504
503
554
573
455
482
501
499
509
506
507
510
512
515
519
512
511
504
498
499
498
498
498
499
498
500
500
500
502
501
502
502
503
504
504
504
504
503
505
505
505
505
504
505
515
510
515
510
502
505
505
506
551
580
460
480
502
501
511
507
508
509
514
512
520
514
511
503
495
497
497
498
498
501
501
500
500
503
503
503
501
500
502
503
503
504
503
503
504
504
504
504
504
503
513
512
512
511
504
504
503
504
544
588
467
476
501
501
508
508
507
508
516
514
520
516
510
504
496
497
500
497
500
499
500
500
500
500
501
505
502
502
502
502
503
504
504
504
504
506
505
504
505
506
512
513
512
510
505
505
503
505
536
592
474
472
500
500
508
507
507
506
514
514
521
517
509
501
495
494
495
496
497
498
501
500
501
502
503
500
506
504
503
503
503
504
506
505
506
504
506
506
508
504
512
511
512
509
504
504
503
503
530
593
483
467
497
500
505
509
508
508
515
512
519
519
510
502
496
498
499
497
498
497
500
500
500
501
500
501
500
501
502
501
504
504
504
503
504
503
503
504
506
504
515
512
511
509
508
501
504
505
524
591
493
465
497
502
504
508
507
508
515
514
520
519
508
500
496
498
496
499
497
499
499
500
500
499
502
500
502
502
503
503
502
502
504
502
504
504
504
502
504
505
513
510
512
512
510
503
504
503
520
588
504
460
496
501
502
507
505
506
515
512
