513
501
495
503
515
512
502
499
506
517
514
505
499
507
518
516
505
499
506
517
516
505
500
507
518
515
505
499
507
519
517
509
502
510
519
517
506
501
508
520
517
506
501
509
520
522
506
503
508
519
518
508
502
508
519
518
511
503
510
520
518
507
502
509
519
516
506
501
508
519
518
509
504
511
521
519
508
504
511
523
521
511
506
513
524
521
509
504
511
522
519
509
504
512
522
524
517
512
519
528
525
515
511
519
530
528
516
512
522
534
527
516
510
518
529
526
512
503
509
519
516
507
502
510
521
518
507
503
511
520
517
506
502
510
523
527
527
538
560
585
596
595
589
580
565
532
491
467
463
470
469
466
473
489
507
509
500
499
508
519
515
504
499
505
517
515
506
506
515
525
521
510
504
510
521
520
508
504
513
524
519
509
504
515
529
529
518
513
519
528
525
516
512
520
533
533
522
518
525
534
530
519
513
517
526
523
513
508
516
525
518
505
503
511
520
513
499
494
503
513
510
496
495
504
515
513
501
497
505
515
512
501
496
504
515
512
502
499
505
515
512
502
498
505
516
513
503
499
506
515
514
505
501
507
516
513
501
500
508
519
516
504
500
508
518
515
504
499
508
519
515
505
500
507
517
516
506
502
510
519
515
504
499
507
518
515
505
501
509
519
515
505
501
509
519
518
506
502
509
519
516
505
502
510
520
517
506
502
510
522
518
506
502
510
519
516
505
501
510
520
517
506
501
508
520
516
505
501
510
520
517
507
503
511
520
517
506
500
510
520
517
508
504
512
521
520
514
513
520
529
525
513
509
517
527
524
513
510
520
533
527
512
506
516
526
523
511
503
508
518
518
505
502
510
520
517
505
501
510
520
516
504
499
508
521
522
520
531
554
579
589
588
589
589
577
544
504
475
466
469
464
460
466
484
503
506
498
496
507
518
514
503
499
508
518
513
502
504
516
526
521
509
505
514
524
520
509
506
514
524
521
510
507
515
528
528
517
514
523
531
526
514
513
521
534
534
524
520
527
537
533
521
518
520
527
522
510
508
518
528
520
503
499
508
520
512
498
493
501
513
511
498
494
501
513
510
498
496
505
514
511
500
499
505
514
511
500
496
505
515
512
501
498
506
515
512
500
496
505
516
513
502
499
507
514
511
501
499
507
516
514
501
499
509
518
514
503
499
508
518
515
504
501
508
518
515
503
501
510
519
515
504
501
508
519
515
504
502
511
520
516
505
502
511
520
516
505
503
511
521
516
504
501
510
521
517
505
503
512
521
517
505
503
512
521
517
505
504
513
522
522
508
506
514
523
518
507
504
512
521
518
507
504
512
522
518
507
504
512
521
517
506
504
513
521
519
511
512
519
528
524
512
510
518
527
522
511
509
519
533
528
513
508
518
529
525
511
506
512
520
516
506
502
511
521
517
505
503
512
521
516
505
504
514
523
522
517
528
552
577
585
586
592
598
588
555
515
487
475
474
464
457
466
485
501
505
496
498
510
519
513
501
499
509
518
513
502
503
516
527
522
512
506
516
526
521
510
508
516
524
519
508
507
516
527
526
516
513
521
529
525
514
512
520
528
527
520
519
526
534
530
519
517
518
527
520
510
508
517
526
518
503
500
510
520
512
497
494
502
512
508
497
496
505
512
508
498
497
507
515
510
499
497
506
515
511
500
498
506
515
511
499
497
505
514
510
499
497
506
516
512
499
498
507
519
512
501
500
508
517
512
500
499
508
518
512
500
498
508
517
512
502
499
508
518
514
501
500
509
517
512
501
501
509
518
513
503
501
510
518
513
503
502
512
521
515
501
502
511
519
514
503
503
513
522
516
507
505
517
522
516
504
504
513
521
516
504
503
511
520
515
504
503
513
521
516
505
504
513
522
517
505
504
513
521
515
504
504
513
521
517
505
504
514
522
516
510
512
521
528
523
512
511
520
529
524
513
511
521
534
530
515
511
519
527
521
511
509
516
522
515
505
504
513
520
516
505
505
514
522
516
505
503
513
521
519
513
522
545
569
576
576
588
601
598
568
527
498
484
477
465
454
462
483
497
499
493
495
508
517
512
499
499
508
515
512
500
501
515
526
519
507
505
515
525
520
509
508
517
524
520
508
507
516
521
522
514
513
521
529
524
513
513
522
530
526
518
518
529
536
528
516
515
524
528
520
509
509
518
526
519
504
501
511
519
513
497
495
504
513
508
496
495
504
512
506
495
497
506
515
508
497
498
508
516
510
498
498
508
515
510
501
501
510
517
511
500
501
511
517
512
501
502
511
517
511
500
501
511
518
512
501
502
510
518
512
500
501
511
519
513
498
503
513
522
514
503
502
512
519
514
502
503
513
519
513
503
504
514
521
514
503
505
515
523
517
504
505
514
520
514
503
504
514
520
517
504
505
513
521
516
503
503
513
520
515
505
506
516
522
517
506
506
515
522
515
504
505
516
522
515
505
505
515
522
516
504
505
516
522
516
505
506
516
523
516
506
512
524
530
523
511
512
523
528
521
511
512
522
529
527
515
512
519
529
521
511
511
516
518
511
502
504
515
521
514
503
504
513
518
512
502
504
514
521
516
509
518
540
562
570
573
586
603
603
575
537
509
494
480
465
450
456
475
491
493
491
495
508
522
511
499
499
509
517
510
499
501
514
524
518
507
507
518
524
518
508
509
519
526
518
506
508
517
523
519
512
515
525
531
523
512
512
523
531
525
518
522
531
536
528
517
519
530
532
522
510
511
521
527
520
505
503
512
518
512
499
497
505
511
505
496
498
508
514
508
496
498
509
514
506
496
499
509
515
508
497
499
509
515
509
498
500
509
516
509
499
501
511
516
510
499
500
511
517
509
499
501
516
518
510
499
500
511
517
510
499
501
513
519
512
500
501
511
517
511
500
502
513
518
511
498
501
512
519
512
502
508
519
518
513
502
503
513
519
512
502
504
514
519
514
503
505
516
521
513
502
505
517
521
513
501
504
517
522
515
504
506
517
521
514
504
507
518
522
514
503
506
517
523
514
503
505
516
522
515
504
507
517
522
515
504
505
516
521
514
503
510
525
531
522
510
512
523
528
521
511
513
523
527
524
515
514
521
526
519
508
511
521
521
511
501
504
516
521
514
502
504
516
521
514
503
506
516
521
515
508
516
536
555
563
567
583
604
609
586
550
522
505
487
467
451
456
476
490
490
487
496
510
517
510
500
502
512
516
507
498
502
515
523
517
507
509
520
525
517
507
510
520
524
516
506
510
520
525
519
512
514
527
530
522
511
514
525
530
522
515
520
532
535
527
516
520
530
532
520
507
511
522
526
517
505
505
515
519
511
500
499
508
512
505
496
500
511
514
505
495
499
510
515
506
496
500
511
515
507
496
499
510
514
506
497
502
512
515
506
496
500
512
516
508
497
500
511
515
507
497
501
512
515
509
500
503
514
520
510
503
503
514
518
510
501
506
516
518
509
500
505
517
520
511
502
505
517
520
511
501
504
515
519
512
501
503
515
519
511
501
505
516
520
512
502
506
517
521
512
502
507
519
520
512
502
506
518
522
513
503
507
518
522
513
503
505
517
520
511
502
506
516
519
511
502
506
518
520
512
503
507
519
522
512
502
506
518
522
512
502
509
526
529
520
511
516
527
529
520
509
513
524
527
521
515
517
525
526
517
509
513
524
522
510
501
505
515
517
508
500
505
517
520
511
502
506
518
521
511
505
514
534
550
556
561
579
602
610
593
561
536
517
495
468
451
455
473
486
487
485
496
509
514
508
499
503
514
515
508
499
504
517
523
516
508
512
523
525
515
505
509
517
523
515
508
511
521
523
514
511
517
529
530
520
512
516
527
528
520
513
522
536
537
526
516
521
533
535
521
510
513
523
525
517
508
508
516
517
509
499
501
510
511
500
495
500
512
512
502
494
500
512
513
503
494
500
511
512
503
495
501
513
513
504
497
503
515
516
506
498
503
516
517
508
499
505
515
517
507
499
505
516
517
508
498
503
513
515
506
498
504
516
517
508
499
505
516
518
509
500
505
516
517
508
499
505
516
517
508
501
506
517
517
507
499
505
517
519
510
502
507
517
518
510
502
506
518
518
508
501
506
517
519
510
499
504
516
518
509
502
506
517
518
509
502
508
519
519
510
502
508
518
518
511
503
507
519
520
511
502
509
520
521
512
503
508
521
522
513
505
511
526
529
520
512
516
526
527
518
510
514
524
526
517
513
522
526
523
514
507
513
526
524
510
500
506
519
519
509
502
508
520
521
512
503
507
518
519
511
504
513
530
541
547
555
575
599
608
600
571
550
531
504
474
455
458
472
481
482
481
495
510
514
507
500
505
516
517
506
498
505
516
520
514
508
513
524
524
513
506
511
522
521
511
504
511
522
521
511
506
516
530
529
518
510
517
528
527
517
510
521
536
536
525
517
522
532
531
519
508
512
525
524
515
506
511
519
518
508
500
505
511
509
499
493
500
512
512
503
496
502
513
513
504
497
504
515
514
503
496
504
515
515
505
497
504
514
513
504
498
504
514
513
504
497
503
515
516
504
497
503
515
514
504
498
505
516
517
508
500
505
516
517
507
500
506
517
516
505
499
505
517
515
504
498
506
518
517
507
499
505
516
516
508
503
509
520
518
508
501
507
519
517
507
503
509
519
518
508
501
508
520
518
508
502
508
519
518
508
501
507
518
518
509
503
509
520
519
509
503
511
521
519
509
502
511
521
520
510
504
512
522
520
511
507
512
523
521
510
504
511
524
525
517
510
517
526
524
514
508
515
526
526
516
513
522
529
524
513
508
515
526
523
508
500
508
519
518
506
500
507
519
517
507
502
508
519
518
506
501
511
527
536
539
548
569
593
604
597
579
561
542
511
478
457
456
467
474
474
477
491
508
509
502
499
506
515
513
503
497
505
516
515
507
504
513
525
523
512
505
512
523
523
513
506
513
524
521
511
506
518
531
529
519
513
520
529
526
516
512
521
535
535
524
518
525
535
532
520
511
516
527
525
515
510
515
520
519
504
499
508
515
510
499
494
501
511
509
499
494
501
512
510
500
495
503
515
511
501
496
503
515
513
502
497
504
515
512
502
498
505
515
513
501
497
505
516
514
502
499
507
518
514
502
498
507
517
514
505
499
505
517
515
504
499
507
518
516
505
499
507
518
515
504
500
507
518
516
505
499
506
517
514
504
500
507
518
515
505
500
508
518
516
504
499
506
516
514
504
500
508
519
516
504
500
508
520
517
505
501
508
519
517
507
502
505
519
517
508
502
511
521
518
507
503
511
520
517
506
504
512
521
518
507
501
510
522
519
508
504
512
524
525
516
511
517
527
525
515
510
517
528
525
514
512
523
532
526
513
509
518
527
524
509
501
510
520
519
508
504
511
517
518
508
504
511
520
517
506
503
513
527
531
532
542
565
589
599
595
585
572
555
521
484
461
460
467
470
468
474
491
508
507
499
499
507
518
514
504
499
505
516
513
504
504
513
523
519
510
505
513
523
521
510
507
515
524
519
509
507
519
531
529
517
511
519
530
526
515
511
520
534
533
522
519
525
534
530
519
511
516
526
523
513
509
517
524
517
505
501
509
516
510
499
496
505
515
511
500
496
503
512
510
500
497
505
516
512
501
498
506
515
512
501
498
507
518
514
502
499
507
519
513
501
498
505
516
514
504
500
508
518
514
500
500
508
517
511
500
499
508
518
514
503
503
509
519
515
504
501
508
518
515
503
501
510
520
515
503
499
509
520
515
504
503
511
517
515
505
503
511
519
515
503
502
510
519
515
505
503
511
520
515
505
503
510
519
517
507
503
510
520
516
505
503
512
521
517
504
502
511
520
517
506
504
513
523
519
507
503
513
523
520
507
504
512
522
518
507
505
514
523
523
513
510
519
529
524
512
509
517
527
524
516
511
523
533
525
511
508
518
527
523
510
502
510
519
515
504
501
509
519
515
504
503
511
522
516
505
503
511
524
525
523
536
560
584
592
590
588
583
568
534
494
470
465
469
467
464
472
489
506
506
497
499
509
517
512
501
499
508
518
513
504
507
518
527
520
508
507
516
525
520
508
506
516
525
519
507
505
516
530
526
515
514
522
529
524
514
512
521
533
531
521
520
527
536
532
520
517
519
528
520
511
510
519
526
518
504
501
510
518
509
496
495
505
514
509
498
496
505
512
507
497
496
507
515
510
499
499
508
517
512
500
498
507
515
511
499
498
507
515
509
498
497
506
516
512
500
498
507
515
510
499
499
508
516
512
501
501
510
518
512
501
500
510
519
511
500
499
510
519
513
502
500
509
519
513
502
502
511
520
515
503
501
510
519
514
503
502
512
520
514
502
500
510
519
513
502
501
511
519
515
504
502
512
520
515
503
501
511
520
515
504
502
511
520
515
503
502
511
519
514
503
504
514
520
515
504
504
514
521
516
505
505
515
522
516
505
504
513
523
519
511
512
521
528
524
511
512
523
530
524
512
512
523
534
526
512
509
519
527
522
509
505
511
519
515
504
502
511
520
515
503
502
511
520
515
503
504
513
523
523
520
533
557
578
586
587
594
595
581
547
505
480
471
470
463
458
468
487
502
503
496
500
512
519
513
502
501
510
517
512
501
504
517
526
518
507
506
516
523
518
508
507
516
523
516
505
507
517
527
524
513
512
521
528
524
512
512
522
531
529
520
519
528
535
529
518
518
524
528
521
511
512
523
528
518
503
502
513
522
513
497
497
507
516
509
498
499
509
516
509
497
498
508
515
508
497
499
510
518
511
499
500
510
517
512
502
502
511
518
511
500
500
510
517
511
501
502
511
518
512
500
501
511
517
510
500
501
512
519
513
502
501
511
519
512
501
502
512
519
513
502
502
513
520
514
504
504
512
519
512
501
503
514
521
513
501
502
513
519
513
502
502
513
520
514
504
505
514
521
515
504
506
515
520
513
503
504
515
520
514
501
503
513
520
513
502
502
513
521
515
503
504
515
522
515
504
505
516
522
515
503
505
516
522
515
504
504
515
521
515
508
511
522
529
522
509
510
519
527
522
511
512
522
534
527
511
509
519
526
521
510
509
515
519
513
503
503
513
520
512
501
503
514
521
513
507
505
516
522
520
515
527
552
573
581
583
593
600
589
555
513
488
478
473
463
455
465
483
499
500
494
499
512
518
510
499
500
511
518
512
501
505
519
526
518
505
507
517
523
516
506
507
518
525
518
506
508
518
525
522
513
515
524
530
523
511
512
522
530
526
518
520
530
535
527
514
516
527
529
521
507
509
520
525
516
502
502
513
521
512
497
497
507
513
507
497
499
508
514
507
496
499
508
515
508
497
498
509
516
508
497
500
510
516
509
499
502
513
518
511
499
500
510
516
510
501
502
511
517
510
500
503
513
518
510
500
502
513
517
511
500
502
512
517
510
500
504
515
520
512
501
503
512
518
510
500
502
513
518
511
500
503
514
519
511
501
503
514
519
513
503
504
514
520
513
503
506
517
522
514
504
505
514
520
513
503
505
515
520
513
502
504
515
519
512
502
505
516
521
514
503
504
515
521
514
504
506
517
521
513
503
507
517
521
515
503
506
515
522
516
508
514
524
528
519
509
512
523
528
518
510
513
523
530
525
512
511
521
527
521
510
511
518
519
511
500
505
517
521
512
501
504
515
519
513
503
506
518
522
517
510
526
548
568
576
578
591
605
600
568
528
500
487
477
462
451
462
484
497
497
493
497
511
517
509
499
501
512
517
510
499
502
518
527
520
507
509
519
523
516
505
508
519
523
516
506
509
520
524
520
513
515
524
528
521
511
514
525
529
523
516
520
531
535
526
514
517
527
527
515
505
508
519
524
515
501
502
513
518
509
494
494
506
512
504
493
498
510
514
505
494
498
510
514
506
495
499
510
514
506
496
499
511
515
507
497
499
510
515
508
498
500
511
515
509
499
503
512
516
509
500
503
512
516
508
499
503
514
518
511
501
503
514
517
509
501
505
516
519
511
499
502
513
517
509
500
505
515
518
510
503
506
517
520
512
501
505
516
520
512
503
507
518
521
513
502
505
517
521
513
503
507
518
523
513
503
505
515
519
511
501
505
516
520
512
503
507
519
521
512
503
507
518
522
514
505
510
519
522
512
503
507
519
522
515
504
508
519
521
512
504
513
526
529
519
509
514
525
528
519
508
512
523
528
525
515
514
523
525
517
508
513
521
520
511
501
505
517
520
512
502
506
517
519
512
502
505
516
520
513
508
519
543
561
568
572
588
606
605
577
540
512
497
484
464
450
460
479
491
491
490
497
512
518
510
501
504
514
517
508
498
502
517
524
517
506
510
521
524
515
506
510
520
523
515
504
509
520
523
519
514
518
528
530
522
512
515
526
528
521
516
523
534
535
525
515
520
532
531
518
508
513
524
527
518
507
506
515
519
512
500
500
510
513
504
494
499
510
513
505
496
500
511
513
504
496
501
512
513
504
495
501
512
514
506
497
502
513
515
506
497
502
513
515
506
498
502
513
514
506
497
503
514
518
509
499
504
515
516
507
499
505
514
515
507
498
503
515
517
508
499
504
516
517
508
499
505
517
519
510
502
506
518
520
511
501
505
517
518
510
502
508
519
521
511
502
507
519
521
511
502
505
516
517
509
500
505
517
518
510
501
507
518
520
512
502
506
517
519
510
501
507
519
521
513
503
507
519
519
511
502
506
517
519
511
502
508
518
520
511
502
510
526
530
520
510
514
527
529
519
509
514
525
527
523
515
515
524
526
517
509
513
521
519
508
500
506
518
519
510
501
506
518
520
510
502
507
519
521
512
507
517
538
553
559
565
584
606
608
584
551
527
512
488
465
451
459
480
491
489
487
501
512
516
508
499
503
514
515
507
499
505
518
523
515
506
510
522
523
513
504
510
521
521
513
505
510
521
522
513
510
517
528
528
518
511
517
528
529
519
516
524
536
536
527
519
524
535
535
521
511
516
529
527
519
509
510
520
520
511
502
503
512
512
505
496
500
512
513
504
496
501
512
512
502
496
501
513
513
504
497
501
512
512
503
497
502
513
514
505
497
503
514
513
503
496
502
514
515
505
497
504
516
516
505
497
503
515
515
505
497
503
513
514
504
497
503
515
514
504
497
503
515
514
506
499
504
516
517
507
499
505
517
516
507
499
506
517
518
509
500
506
517
516
508
502
508
518
518
508
501
507
518
517
507
499
505
518
518
509
502
508
519
519
509
499
507
518
519
509
500
506
517
518
509
502
510
520
520
511
504
510
520
519
510
502
509
521
521
511
503
512
527
529
518
510
516
528
528
518
511
515
527
527
519
515
519
527
524
516
509
516
526
522
508
501
507
518
518
509
502
511
519
519
509
502
508
519
518
509
503
514
533
545
552
560
581
604
609
592
563
540
522
496
469
451
457
474
483
483
483
496
511
513
506
498
503
515
515
505
499
505
516
520
513
507
512
522
521
512
505
511
522
521
512
505
512
522
521
512
508
516
528
527
518
510
516
528
527
518
512
522
535
534
523
516
523
535
533
519
508
513
524
524
514
507
510
518
517
508
499
502
511
511
501
496
501
511
511
501
494
501
512
512
504
497
503
512
512
502
495
501
513
514
503
496
504
515
514
503
497
503
515
513
504
498
504
514
513
503
497
504
516
516
505
500
505
516
515
506
500
506
517
515
505
500
506
516
517
504
498
505
518
517
507
501
508
520
518
506
500
507
519
518
507
501
507
519
518
509
502
508
518
517
507
501
508
520
518
508
502
509
520
518
509
503
509
519
518
508
503
509
519
517
507
503
508
520
521
511
503
509
520
520
509
503
510
520
518
509
505
511
522
520
509
504
511
520
518
509
503
511
527
528
517
511
516
527
524
514
510
517
527
525
515
513
521
527
522
512
508
515
526
521
508
501
508
519
519
508
502
509
520
518
508
503
510
519
517
507
502
513
530
540
544
554
575
600
606
593
570
552
533
504
472
454
457
472
479
478
481
495
509
510
502
497
504
516
512
502
498
505
516
516
509
506
512
523
521
510
504
511
522
520
510
505
511
520
519
507
505
514
528
526
516
511
518
529
525
515
511
521
534
531
521
515
522
533
531
519
511
515
526
524
515
510
513
520
516
506
501
507
512
505
498
493
501
511
510
500
495
503
513
511
502
497
503
512
510
501
496
503
514
512
502
497
504
515
512
502
498
506
516
514
503
498
505
516
513
503
500
506
518
515
505
500
507
516
515
505
502
508
516
514
504
500
507
517
514
506
503
509
520
515
505
501
509
519
517
507
502
509
519
516
505
500
509
519
517
506
500
509
520
517
507
502
508
519
516
506
501
509
519
517
505
502
510
520
518
508
504
511
521
517
507
502
508
519
517
507
503
510
521
520
510
506
514
522
518
508
504
512
522
519
508
504
512
523
521
510
504
512
526
527
520
512
519
529
526
515
511
519
529
526
515
515
524
531
526
514
511
519
529
525
510
502
508
521
517
506
503
510
520
516
505
502
511
520
517
506
502
512
526
533
537
550
569
593
603
596
581
566
548
515
478
457
458
468
474
473
478
493
509
509
502
501
508
519
513
503
499
506
517
514
508
508
515
523
520
510
507
515
523
520
509
507
514
524
520
509
505
518
532
529
517
512
519
529
526
514
512
522
536
534
523
518
524
535
529
519
510
516
524
522
511
508
514
519
512
504
502
510
514
508
497
495
503
513
509
498
496
503
513
510
500
495
505
514
511
500
496
504
515
512
501
497
505
515
514
501
498
506
516
513
501
497
507
519
514
502
498
506
516
513
503
499
507
516
511
501
498
507
517
513
501
499
509
518
514
503
499
507
517
514
504
505
507
516
513
502
504
510
518
515
503
499
507
517
514
504
501
509
519
514
504
502
510
520
516
506
502
509
519
516
504
502
512
521
518
507
503
511
522
518
507
503
510
520
516
506
503
511
521
517
506
502
512
521
517
505
503
511
521
517
507
504
512
520
516
506
503
512
523
523
514
511
518
528
524
514
512
521
529
526
513
513
524
531
524
511
508
517
527
523
509
504
511
521
517
505
503
510
519
518
506
503
512
521
516
505
504
513
526
528
529
543
566
588
596
593
587
577
559
524
488
465
463
471
471
469
476
493
509
508
499
500
510
519
513
502
500
510
518
513
505
506
517
525
521
509
507
515
524
520
509
507
514
523
519
508
504
518
531
527
515
512
520
530
526
515
513
522
535
533
522
520
527
536
531
519
514
519
526
522
512
511
520
526
516
503
501
510
516
508
499
495
505
514
509
497
495
505
515
510
498
495
504
513
509
498
497
507
515
511
499
498
507
516
511
500
498
507
517
513
503
499
506
515
511
500
499
507
516
511
500
499
510
519
515
503
500
510
519
513
502
500
508
517
513
502
501
510
519
514
501
500
510
520
515
503
500
510
519
515
504
502
511
520
515
503
502
512
521
516
505
502
511
520
516
506
504
512
521
518
505
503
512
520
515
504
504
513
521
515
505
503
511
519
514
504
504
514
522
516
504
502
512
521
516
505
504
513
521
517
506
505
514
522
517
506
505
514
524
523
515
514
522
530
524
513
511
521
529
524
512
511
525
535
525
511
509
518
527
522
509
504
512
519
516
505
505
513
520
515
504
502
510
520
516
505
504
513
525
525
524
537
561
579
592
592
592
587
572
538
497
472
467
470
467
464
473
490
506
504
495
497
509
518
512
504
501
511
517
510
501
504
517
524
518
508
508
518
526
519
507
506
516
525
520
508
506
517
531
529
518
514
521
529
524
514
513
522
533
532
523
521
529
536
531
519
518
523
528
521
510
512
520
527
517
502
501
511
518
510
496
496
505
514
510
498
498
508
515
508
497
498
507
517
511
500
498
509
516
511
499
498
508
515
510
497
497
507
516
511
499
498
508
517
512
500
499
508
518
512
502
500
508
516
512
500
500
510
519
514
502
500
509
517
510
500
501
511
519
513
502
502
511
519
512
502
501
510
519
514
502
502
512
519
513
502
503
512
520
514
502
502
512
519
514
503
504
514
521
514
502
501
512
520
514
504
503
513
520
515
505
504
514
522
516
504
505
515
524
519
507
506
515
522
516
505
505
514
521
515
504
505
515
523
517
505
505
514
521
519
511
512
521
528
523
512
512
521
528
522
511
511
521
532
526
512
510
519
527
521
510
506
512
519
514
504
505
514
521
515
504
503
513
521
515
505
504
513
521
519
517
530
554
576
583
584
591
594
580
547
506
480
470
470
462
457
468
486
501
501
492
496
509
519
518
500
499
508
516
512
501
505
518
526
519
508
509
518
525
519
507
507
516
524
518
507
508
518
528
527
516
516
525
533
526
514
514
524
532
531
521
520
529
536
529
519
519
525
528
520
511
511
522
529
518
501
502
513
521
511
497
497
507
514
509
497
497
507
515
509
499
500
509
516
509
499
500
510
516
510
499
499
508
515
509
498
498
508
515
510
499
500
510
516
508
499
499
509
515
510
498
499
510
516
510
503
501
512
518
511
499
501
511
517
511
501
503
513
519
512
500
502
512
518
513
503
504
515
520
513
502
504
514
520
513
502
505
513
519
513
501
504
515
522
514
504
505
515
522
516
504
504
514
521
515
502
503
514
521
513
503
504
515
522
515
504
505
516
523
516
504
506
516
522
515
504
505
516
522
516
506
508
518
524
516
505
506
517
522
516
508
513
524
530
523
512
514
523
529
523
512
514
524
534
526
511
510
520
526
520
509
508
515
519
512
503
505
515
521
514
498
504
514
520
513
502
505
516
522
519
514
527
551
573
581
581
592
602
591
559
518
492
481
473
462
454
465
486
501
500
493
497
511
518
511
499
501
513
518
510
499
503
518
524
517
507
508
518
524
515
505
507
517
523
515
505
507
518
525
522
513
514
524
529
523
512
515
528
529
527
519
521
530
534
527
518
519
528
529
519
508
512
522
527
518
502
502
513
521
513
498
496
506
512
506
496
499
510
514
506
496
498
508
514
508
496
498
510
515
508
497
499
510
516
509
496
499
511
516
509
498
500
510
515
509
497
501
511
516
509
499
500
512
517
510
499
501
511
517
510
498
501
512
517
510
500
503
514
519
511
499
502
512
516
511
501
504
515
519
511
501
504
515
519
512
502
505
515
522
512
502
503
514
519
514
504
506
516
521
515
504
505
516
521
514
503
510
517
522
513
503
505
516
521
514
503
506
516
522
516
504
506
516
523
515
504
508
518
524
516
508
507
517
521
514
505
508
517
521
514
507
514
527
531
521
510
512
524
529
522
511
513
524
532
527
513
512
521
526
519
510
513
519
521
513
502
505
517
521
513
504
507
516
521
513
504
506
516
520
516
510
520
546
566
572
575
589
606
600
570
529
502
489
477
463
452
462
483
496
496
491
498
512
517
508
499
503
512
516
510
499
503
517
525
518
508
510
519
524
518
507
510
520
525
518
507
508
519
525
521
512
516
527
530
522
512
514
525
524
522
517
523
532
534
525
514
518
530
528
517
505
510
522
524
518
503
503
513
518
511
496
497
506
512
505
494
497
508
512
504
496
501
511
514
505
496
500
511
515
508
499
500
510
514
507
497
501
512
515
509
498
501
513
516
508
497
501
512
517
508
500
503
514
518
510
500
504
516
519
509
500
503
515
518
510
500
503
515
519
510
506
504
515
517
509
500
504
516
519
511
501
505
516
520
512
502
506
517
520
511
502
505
515
519
511
501
505
516
520
511
501
504
516
519
510
500
505
516
520
512
501
505
518
519
513
503
507
518
521
512
502
506
517
520
512
504
507
517
520
512
502
506
517
520
512
503
507
518
520
513
505
514
526
528
519
510
514
525
528
520
511
514
525
529
525
514
513
523
527
519
509
513
520
520
511
501
505
517
519
510
501
506
518
520
511
502
506
517
519
511
508
519
543
560
566
570
587
606
606
578
542
517
501
482
462
449
458
480
492
492
490
496
511
516
509
499
503
515
517
509
499
503
518
524
517
508
511
522
524
516
507
511
521
523
514
504
509
520
522
517
511
517
527
529
519
509
514
527
529
520
514
521
532
533
523
515
520
531
530
517
507
511
524
527
518
506
507
516
518
509
500
500
509
511
504
496
501
513
514
506
497
502
513
515
505
496
501
513
516
506
497
503
513
515
504
497
502
514
514
505
497
503
513
515
506
496
502
513
515
506
499
504
516
518
509
500
505
515
517
508
500
504
516
518
510
501
505
515
517
508
500
504
515
516
508
499
504
515
517
510
502
507
517
518
508
501
506
519
519
510
500
507
520
519
512
501
507
517
519
510
502
507
519
521
513
505
509
520
521
512
504
509
519
520
512
504
508
520
521
512
504
509
521
523
514
505
510
520
520
511
503
508
519
520
512
503
508
518
520
512
504
512
526
528
519
510
514
527
527
519
509
514
525
526
521
514
516
525
526
516
509
514
524
521
509
499
506
519
521
511
502
508
518
519
511
503
507
517
518
510
506
515
539
553
560
565
582
604
608
587
556
532
513
490
466
451
458
477
488
488
487
497
512
516
507
499
504
516
517
507
499
505
516
521
515
507
511
523
524
514
506
512
523
524
515
510
510
521
524
515
510
518
529
529
519
512
517
527
527
518
515
524
536
536
525
516
521
532
533
519
508
512
525
526
516
506
504
519
517
509
500
502
510
511
503
495
499
511
513
503
495
500
512
514
503
495
500
512
515
504
498
499
513
514
504
498
503
514
514
505
497
503
515
516
507
499
504
516
516
506
498
504
516
517
505
498
502
516
516
507
501
503
516
515
505
498
506
515
515
505
496
503
516
518
509
500
505
515
515
505
499
506
518
518
508
499
506
518
519
509
501
507
518
517
507
500
506
518
518
510
503
508
519
520
511
502
506
519
518
509
503
507
519
520
511
503
508
520
520
511
503
509
520
520
511
503
508
520
520
511
503
510
520
520
511
500
509
520
521
511
504
511
526
528
518
510
515
527
526
516
508
514
525
525
518
515
518
522
522
513
507
513
524
522
509
502
508
520
520
511
503
508
519
519
509
502
507
518
518
509
504
515
533
545
551
558
577
600
607
591
563
542
523
496
467
452
455
472
482
481
482
495
510
515
507
499
506
516
515
504
498
504
515
519
512
508
512
523
521
512
506
513
524
524
514
506
512
525
524
515
511
520
533
532
521
514
519
531
529
519
512
522
536
535
525
518
524
535
534
521
510
514
526
527
518
510
513
520
518
509
502
504
511
510
501
495
502
513
513
502
495
501
512
511
501
495
502
514
511
503
496
503
514
513
503
496
503
515
514
504
498
504
516
516
505
499
506
516
514
504
498
505
517
516
505
499
505
517
516
506
498
504
517
517
507
499
506
517
516
506
500
505
516
516
507
500
507
518
517
505
499
506
518
517
508
501
506
518
517
506
499
505
517
518
508
501
507
518
520
509
502
507
518
519
509
502
508
519
520
508
502
509
519
519
509
502
508
520
520
510
503
509
521
520
510
503
510
520
519
510
504
511
521
520
510
504
511
522
520
510
503
510
526
528
518
511
517
527
526
516
511
518
528
527
517
514
522
529
524
512
506
514
525
522
509
500
506
518
518
507
500
507
519
518
509
502
508
520
519
510
504
516
531
540
544
553
573
598
607
596
575
556
536
508
476
456
457
469
477
476
479
493
508
509
504
500
507
517
515
505
499
507
517
517
512
508
514
525
523
512
505
512
522
521
512
505
513
525
521
510
505
516
529
528
518
510
516
527
526
516
511
522
536
535
523
517
522
534
532
519
509
513
523
521
512
507
512
517
512
502
499
505
513
508
498
492
500
511
510
500
495
502
513
511
501
495
503
515
513
502
495
500
511
511
502
499
504
514
513
503
497
504
514
513
503
497
505
515
512
502
497
504
515
513
503
497
505
515
514
503
497
505
517
515
505
498
506
518
514
505
500
507
517
515
504
499
508
520
518
508
502
509
520
519
509
504
511
521
519
508
501
509
519
517
507
502
509
520
518
507
502
509
520
518
507
501
509
520
519
508
503
510
521
519
508
501
508
520
518
508
504
511
521
518
508
503
509
520
519
508
503
510
521
519
507
502
510
520
519
509
504
511
523
524
516
511
518
529
527
515
510
516
527
525
518
511
522
531
525
514
509
516
527
524
510
501
509
519
518
509
503
511
522
521
510
504
511
521
520
509
503
512
528
536
539
548
568
591
602
597
585
571
552
520
483
462
461
471
476
474
477
492
511
512
504
501
508
519
516
505
500
507
517
515
509
507
515
526
523
512
507
515
525
523
512
507
514
525
522
511
506
517
531
528
518
512
519
530
526
516
512
522
536
535
524
518
524
534
532
522
514
517
525
523
514
508
515
524
518
505
501
509
516
510
498
495
503
513
510
499
495
502
512
510
500
495
502
513
510
501
498
505
515
512
501
498
505
515
513
501
499
504
515
513
503
497
504
515
512
502
498
504
516
514
503
498
505
517
514
503
498
505
515
514
504
500
507
517
515
504
500
506
517
514
503
499
507
518
515
505
501
509
520
516
505
500
507
518
515
505
501
509
519
517
505
501
508
519
516
505
502
510
520
517
505
501
510
519
515
506
503
510
520
518
506
503
510
520
515
504
501
510
520
517
506
503
510
519
517
507
503
511
521
518
507
503
511
522
519
507
504
511
523
524
515
512
519
529
524
517
512
520
530
526
515
512
524
534
527
514
511
518
528
524
510
502
508
519
517
507
503
511
521
517
506
503
510
520
517
507
503
511
526
529
529
539
563
588
597
596
590
584
564
530
491
466
463
469
470
469
474
489
506
507
499
499
509
520
516
504
501
508
518
515
505
506
516
525
521
511
508
515
526
523
511
508
515
526
522
511
508
519
531
528
516
512
520
529
526
515
510
519
534
533
522
517
524
535
532
519
514
518
527
524
513
510
517
525
517
505
502
510
518
509
496
495
504
513
510
498
495
503
514
511
500
496
504
514
511
500
497
504
514
511
501
498
505
515
512
502
498
505
515
512
500
497
503
516
511
500
496
505
515
512
502
499
507
517
514
503
500
508
519
514
502
499
508
518
514
503
500
508
518
514
505
502
510
519
515
504
502
510
520
516
504
500
509
520
516
506
502
510
520
516
505
503
511
521
516
506
504
511
522
516
505
501
509
520
517
506
503
510
521
518
508
504
510
520
517
508
504
511
520
517
505
503
510
520
516
505
502
510
520
516
504
502
510
520
516
504
503
510
520
519
518
512
519
527
524
513
511
519
527
523
511
508
520
533
525
511
508
516
527
523
511
503
509
519
519
505
502
510
519
516
505
503
511
520
517
505
503
511
523
524
523
533
557
580
590
590
590
592
573
541
501
474
466
468
465
461
469
487
504
505
496
498
509
518
512
501
500
508
516
511
501
503
515
524
519
508
505
514
524
519
508
507
515
524
520
508
505
514
527
527
516
512
520
528
524
513
510
519
531
531
522
519
526
536
532
522
518
522
527
522
513
511
519
528
518
503
501
511
521
511
498
496
505
515
510
498
496
506
515
511
500
497
507
517
512
502
499
507
516
512
500
499
508
517
514
503
499
509
522
515
502
499
508
516
512
502
496
509
518
512
501
498
509
518
513
502
500
509
519
512
502
500
509
518
514
502
500
509
518
514
503
501
510
520
515
504
501
511
520
515
506
501
510
519
514
502
500
510
520
516
504
503
511
520
514
503
502
511
521
518
506
503
511
521
512
506
504
511
521
517
505
504
513
523
518
506
504
513
522
517
506
504
512
521
517
506
504
512
517
515
505
504
513
521
516
504
503
511
520
517
511
513
521
528
523
512
511
520
528
522
511
510
521
534
527
512
509
518
527
522
513
507
513
520
516
506
504
511
519
515
503
503
512
520
516
504
502
512
524
522
518
528
551
575
584
585
592
592
585
552
511
484
473
473
465
458
467
486
503
504
496
498
511
520
513
501
502
511
518
512
500
503
518
528
521
509
506
515
523
518
506
504
516
525
519
508
507
516
528
526
515
514
525
532
526
515
513
522
531
529
520
519
528
536
530
519
517
523
528
521
510
510
518
527
519
505
502
512
521
512
497
496
506
514
508
497
496
504
512
508
498
497
506
515
510
500
498
507
515
510
499
499
508
517
511
501
499
508
516
510
499
498
507
515
511
501
500
509
516
513
502
501
510
517
511
500
501
510
523
514
501
502
510
517
512
502
501
511
519
514
502
501
511
518
513
503
501
511
519
514
503
508
513
521
515
503
503
511
520
515
505
503
512
520
514
503
503
512
519
514
504
499
512
520
514
504
502
511
520
515
505
506
515
523
517
506
506
516
522
517
505
504
513
522
517
506
506
516
523
517
506
506
515
522
515
508
506
515
522
517
510
513
523
529
523
513
512
520
528
523
512
511
520
531
528
513
510
520
528
522
512
511
515
520
514
503
504
515
524
517
505
505
514
521
516
505
506
515
523
521
513
525
549
572
581
581
590
600
594
563
523
495
484
476
464
455
463
482
498
500
494
496
510
519
512
500
498
507
514
511
500
501
515
525
520
508
507
516
523
518
507
507
515
522
517
507
508
518
525
523
515
515
520
530
524
513
513
522
530
527
518
519
527
534
528
516
515
524
528
519
507
508
519
526
519
503
500
510
519
512
495
493
504
512
507
496
496
506
514
508
497
498
507
514
507
497
499
509
515
508
497
498
509
513
509
497
499
509
517
511
500
501
510
518
512
501
502
511
518
511
500
501
511
518
512
499
499
510
516
510
500
500
511
517
510
499
500
509
517
510
500
501
512
519
512
501
501
512
519
513
501
502
511
519
515
502
502
513
517
514
504
506
515
520
514
503
504
514
520
515
503
505
516
522
514
503
504
515
522
515
504
504
513
520
515
504
504
515
521
515
505
507
516
522
516
504
505
515
522
515
504
505
513
520
514
504
506
516
522
515
507
513
525
530
522
509
510
519
527
522
512
512
522
530
528
515
514
522
528
522
512
512
518
521
514
503
506
515
521
514
503
503
513
520
513
503
504
516
520
516
508
518
541
562
570
574
588
600
601
572
533
506
492
480
463
451
460
480
495
495
490
494
510
518
510
499
501
512
517
510
500
503
516
526
520
508
509
519
523
517
506
509
519
525
517
507
510
521
527
521
513
515
525
530
521
511
514
525
529
523
516
520
530
535
526
516
518
528
530
520
509
511
522
526
520
505
504
513
520
514
499
497
507
513
508
498
499
509
514
507
500
498
509
515
507
496
498
509
515
507
496
499
510
515
508
498
500
511
515
508
498
500
511
516
509
498
502
513
518
510
499
500
512
519
513
501
504
513
519
511
499
502
514
520
512
501
503
513
518
511
500
502
511
517
510
500
504
514
519
512
502
506
514
518
511
502
504
514
519
512
502
503
516
521
515
504
506
516
520
514
503
506
517
521
513
503
505
515
520
513
502
504
515
520
514
503
505
515
519
512
502
506
515
521
513
504
506
516
520
513
502
507
518
523
515
504
508
515
521
515
506
513
526
530
522
511
514
524
529
521
511
512
524
528
525
515
515
523
527
521
512
515
521
520
512
503
506
516
520
513
503
505
515
520
512
503
506
517
521
514
508
517
539
556
564
568
584
604
608
583
546
519
502
484
465
450
456
476
491
491
488
495
508
515
509
499
502
513
518
510
499
502
514
522
516
506
509
519
523
515
506
508
519
522
514
504
508
520
524
518
512
516
526
529
521
510
514
526
530
523
517
524
537
536
527
517
520
532
534
522
510
513
522
526
518
506
506
516
519
512
501
500
508
511
504
495
497
508
514
506
495
498
509
513
505
496
501
511
514
506
497
500
510
513
506
496
500
510
512
505
496
501
512
515
507
497
501
512
515
507
497
501
513
517
508
498
502
513
516
509
500
504
516
518
510
500
504
514
519
511
502
505
516
518
511
502
505
517
520
513
503
506
516
519
511
502
507
518
520
511
502
505
516
518
511
503
507
517
520
513
504
507
519
521
513
504
507
518
520
511
502
507
519
522
512
503
507
518
521
514
505
509
520
523
515
506
510
520
522
514
505
510
519
523
513
502
507
519
522
514
505
512
526
529
520
511
516
527
529
520
510
514
524
527
523
516
517
524
525
517
508
514
524
521
510
501
506
519
520
511
501
505
518
521
513
503
506
516
520
511
505
514
534
549
555
559
579
601
608
590
557
532
514
492
467
451
455
474
487
487
486
497
509
514
508
499
504
513
517
509
499
504
516
522
516
507
510
520
523
514
506
511
521
523
514
504
509
520
525
516
511
518
528
529
519
510
515
526
528
519
512
521
534
534
524
515
521
532
534
521
510
513
524
527
518
507
508
518
520
511
501
501
508
510
503
495
500
512
514
505
495
500
512
515
505
496
501
513
514
505
496
502
514
516
507
498
503
518
515
506
496
501
512
515
506
496
502
514
516
506
497
503
514
515
506
496
500
513
516
508
500
504
515
517
509
500
505
516
517
507
498
503
514
515
508
499
505
516
518
509
500
506
518
518
508
499
506
519
520
510
502
507
519
520
510
501
507
520
521
511
502
507
519
520
511
502
507
520
521
511
502
508
520
521
511
504
508
518
520
512
503
508
518
520
512
502
508
519
520
511
502
508
520
521
511
501
504
519
520
511
503
510
526
529
519
511
515
526
527
517
509
515
526
527
519
514
519
524
531
519
509
515
525
522
509
500
507
519
519
509
501
505
518
518
509
501
510
520
520
510
503
512
529
542
549
556
575
598
606
592
565
545
526
501
471
452
455
472
482
480
480
494
509
512
505
498
503
513
517
506
499
504
516
519
513
505
510
521
521
513
506
511
522
524
514
506
512
523
523
514
510
519
532
531
521
513
518
530
532
520
513
523
537
536
526
519
524
535
534
519
508
515
528
527
518
509
512
520
518
509
501
503
511
509
500
495
501
513
511
502
495
500
511
512
503
495
502
513
512
504
496
503
514
513
505
498
504
515
514
503
497
505
516
516
505
498
503
514
515
505
497
503
514
514
505
499
503
515
514
506
500
506
517
516
506
499
505
516
516
505
498
506
517
517
508
500
507
519
518
507
501
507
518
517
506
500
506
517
517
507
500
506
518
517
508
502
509
520
519
508
500
508
520
518
509
501
507
518
517
508
501
507
518
519
509
502
507
518
518
508
502
507
519
519
509
502
508
519
520
511
504
509
520
519
509
503
511
522
522
511
503
506
526
527
519
512
517
527
527
516
510
517
528
527
516
513
521
529
525
515
509
515
527
524
508
499
505
518
517
508
501
508
519
517
507
502
509
519
518
509
504
514
530
539
543
552
571
595
605
596
576
558
541
511
477
456
458
470
478
477
479
492
509
511
505
499
505
515
514
505
499
505
518
517
512
509
516
526
523
513
506
513
525
523
513
506
514
524
522
512
506
517
530
530
520
512
518
529
527
517
512
522
537
536
526
519
523
534
534
522
511
514
524
523
514
508
512
518
515
504
499
507
513
508
499
494
502
511
509
499
493
500
512
511
500
495
502
513
512
501
495
503
515
513
502
496
503
514
513
504
499
504
514
511
500
494
503
515
514
504
499
505
515
513
503
498
504
516
513
503
497
506
521
516
505
499
506
517
514
503
498
506
517
516
503
498
504
515
514
505
501
508
519
516
506
502
509
520
518
508
502
509
520
517
507
502
509
520
519
508
503
510
520
518
508
504
511
522
519
507
502
509
520
519
509
503
510
521
518
508
502
510
522
521
510
504
511
521
518
509
504
511
520
518
507
502
509
521
519
509
503
511
524
526
517
510
516
527
524
513
509
516
528
526
515
512
523
532
526
514
509
516
526
524
509
501
508
519
518
507
500
509
520
518
507
503
510
521
519
507
502
512
527
532
533
544
566
591
601
596
583
570
551
519
482
460
459
468
472
472
475
491
505
508
500
498
507
517
514
503
499
506
517
515
507
507
516
526
522
512
507
515
524
526
512
508
516
527
523
512
508
520
533
530
517
512
519
529
527
516
513
521
536
535
524
518
526
536
536
522
514
517
527
524
513
509
516
524
516
505
501
510
518
513
499
494
503
513
510
498
495
503
513
509
499
496
503
514
512
501
497
504
513
509
500
496
504
514
512
501
497
504
515
512
501
496
505
516
514
503
500
507
517
514
503
500
508
519
515
503
500
507
517
516
505
501
509
519
517
504
500
510
519
517
506
503
509
519
515
503
500
508
519
516
504
500
509
519
515
504
501
510
520
516
505
502
509
520
516
505
502
510
520
517
505
503
511
521
518
506
503
512
522
517
506
503
511
521
517
505
502
510
520
517
507
503
510
521
517
507
503
511
521
517
505
502
511
521
517
506
502
511
522
523
517
514
521
529
527
515
510
522
529
524
513
511
523
533
526
511
507
516
527
523
508
500
507
518
514
504
501
508
520
517
507
503
511
521
516
505
503
511
525
526
527
539
560
584
593
593
590
582
566
532
492
468
464
471
471
467
473
490
507
507
499
499
508
518
512
501
498
507
517
513
504
506
515
526
521
509
506
514
524
521
510
506
514
524
520
510
506
516
529
527
515
512
521
530
526
514
512
521
535
534
523
519
527
534
531
521
515
518
525
521
511
508
517
524
515
501
499
509
518
510
495
492
501
511
508
497
495
503
513
508
497
496
505
515
511
500
497
505
516
511
500
498
507
517
511
500
497
504
515
511
500
499
508
518
514
502
499
507
516
512
501
499
507
517
513
502
499
507
516
512
501
499
509
520
515
503
500
509
519
514
503
500
508
518
513
502
500
508
518
515
504
503
510
519
515
503
502
510
520
515
504
501
511
520
516
505
503
512
521
516
505
504
513
522
516
505
502
511
521
516
504
503
512
521
517
505
503
512
521
516
505
503
511
521
517
507
505
513
522
517
505
503
512
521
516
505
504
512
521
520
513
514
522
529
524
513
511
520
529
525
513
512
523
536
527
511
507
517
527
522
509
502
510
519
515
505
503
513
521
515
504
503
512
520
516
505
504
512
524
524
521
533
557
581
589
590
593
592
579
545
503
477
469
470
465
462
471
486
503
505
497
499
508
517
510
499
498
508
516
511
502
506
517
525
519
509
508
518
526
520
508
506
515
524
520
508
508
518
530
527
516
514
522
531
526
515
513
521
533
531
521
520
528
534
528
519
519
524
528
521
510
509
519
528
518
503
501
512
521
513
496
494
504
513
509
499
498
506
513
508
496
495
505
515
510
498
497
507
515
510
498
497
508
516
511
499
499
509
517
511
500
498
508
516
511
500
500
509
516
510
503
501
509
517
513
503
501
510
518
512
501
501
511
519
513
500
500
510
519
514
503
502
512
520
515
503
503
512
520
513
501
502
512
520
515
504
503
511
520
515
504
503
513
521
517
506
505
515
523
517
505
505
514
521
515
503
504
514
522
515
504
504
514
521
515
504
503
513
520
515
503
503
512
520
514
504
504
515
522
516
505
505
515
522
516
506
506
515
522
517
510
513
523
529
522
511
511
520
529
522
511
512
525
532
523
508
507
515
525
521
509
505
511
518
513
499
503
512
520
515
503
504
513
522
516
506
505
514
522
520
516
529
554
575
582
584
593
599
587
555
513
486
476
473
464
457
467
487
502
502
495
499
512
520
513
502
503
513
520
514
503
505
518
526
521
510
510
520
526
520
508
509
519
526
520
508
509
518
528
525
515
515
523
530
524
513
513
523
530
528
519
520
528
534
527
517
518
526
530
520
509
511
521
527
517
502
501
514
519
512
496
492
506
513
507
497
498
507
514
508
497
498
508
515
508
497
499
509
514
508
497
498
508
514
508
496
497
507
514
507
496
499
510
516
509
498
499
508
515
509
498
499
509
515
508
499
499
510
517
511
500
501
513
519
512
500
501
511
517
511
499
500
510
517
511
501
502
512
517
512
502
503
512
518
511
501
502
514
519
512
501
503
514
519
513
502
503
513
520
513
502
504
513
520
513
503
504
515
522
515
504
505
515
521
514
503
505
516
522
515
504
506
516
521
514
504
506
515
521
514
503
504
515
522
513
505
505
516
522
516
508
514
526
530
523
512
513
524
530
524
514
515
525
533
527
513
512
522
528
522
511
511
518
520
513
504
506
515
521
515
504
505
515
521
515
505
506
517
521
518
511
523
547
568
575
576
589
602
596
565
525
498
483
473
461
452
465
485
498
497
491
496
510
518
511
499
500
511
519
511
500
501
517
526
519
508
509
518
524
517
507
510
520
524
518
507
508
518
524
523
515
516
525
531
524
513
515
525
530
525
517
521
531
535
532
517
517
527
528
519
508
511
522
526
518
502
502
513
519
511
497
496
508
515
507
496
499
510
515
507
496
498
509
515
508
497
500
510
513
506
496
499
511
517
510
499
501
512
517
509
498
501
512
516
509
499
502
511
515
509
500
503
514
518
509
499
502
514
520
512
502
504
515
519
511
499
502
513
518
510
499
503
514
519
512
501
504
515
519
511
501
504
515
520
513
502
505
516
520
513
502
504
515
520
512
503
506
517
520
512
503
506
518
521
513
503
506
518
522
515
504
507
517
520
512
503
507
518
521
513
504
508
518
523
515
504
507
519
523
515
504
507
518
521
513
504
509
519
523
514
505
513
525
530
521
512
514
523
527
519
510
513
523
529
526
514
513
523
526
518
510
513
520
519
512
502
506
516
520
513
502
505
515
518
512
503
507
516
520
514
510
520
543
561
568
572
589
607
603
574
536
510
496
479
462
450
459
480
495
495
491
496
511
518
511
501
503
513
517
510
499
502
517
525
517
507
510
521
523
515
507
511
521
524
516
506
510
520
523
518
512
516
527
530
522
512
515
526
528
521
517
524
535
536
526
516
520
531
531
519
508
511
523
526
517
504
504
514
518
511
498
498
508
513
504
495
497
509
514
505
496
499
510
514
508
499
502
513
517
506
496
502
513
516
506
496
500
511
515
506
498
503
514
516
507
498
503
514
517
509
500
504
514
515
508
501
504
515
516
507
498
503
514
516
509
499
505
517
519
511
500
505
516
519
510
500
504
515
518
510
503
507
520
520
512
503
507
518
520
510
501
507
516
517
510
501
506
516
518
510
503
507
517
519
510
501
506
517
519
511
501
505
516
518
509
500
506
517
519
510
500
505
517
518
508
499
504
518
518
510
501
507
519
520
511
503
510
520
521
512
504
513
527
528
520
511
515
526
528
519
510
515
526
528
523
514
516
524
525
519
508
513
523
522
509
501
507
519
519
510
502
507
519
518
511
502
508
518
519
510
504
517
538
554
561
567
585
607
607
582
551
524
507
486
462
448
457
477
489
490
488
498
512
516
508
499
504
515
519
508
500
504
517
523
515
505
510
523
522
514
506
511
521
524
514
505
510
521
524
515
511
519
531
530
520
514
518
530
531
521
518
527
538
537
529
518
523
534
533
520
509
515
527
527
517
507
508
514
518
509
500
501
511
510
501
493
500
512
513
503
495
503
513
514
505
497
503
515
516
506
500
504
515
515
505
498
504
515
516
507
499
505
515
516
506
497
502
513
516
505
498
504
515
516
507
499
505
519
517
508
500
505
517
516
506
499
507
516
515
506
497
504
516
516
507
502
507
515
517
507
499
506
518
517
509
500
505
518
518
507
500
505
517
519
508
500
506
518
517
507
499
505
519
518
508
500
508
519
518
507
501
509
518
518
509
503
509
519
520
510
505
510
520
520
508
502
508
519
518
511
501
508
519
518
509
502
509
521
523
510
504
513
527
528
519
511
517
530
529
519
512
519
529
529
522
516
519
526
526
513
508
516
528
523
511
505
510
520
518
509
501
507
518
519
511
504
510
520
520
509
505
515
535
551
555
563
581
604
608
588
560
537
520
493
465
451
457
476
485
483
483
498
511
513
506
499
505
515
514
504
498
504
516
521
513
507
513
523
521
510
504
512
523
522
511
504
512
523
524
513
511
519
530
528
518
511
517
528
526
517
512
521
533
532
522
517
524
534
532
518
508
512
526
525
514
508
509
516
515
506
501
504
511
509
500
493
500
512
510
501
496
502
512
510
501
495
503
513
512
501
495
502
516
514
503
497
503
514
511
502
497
503
513
515
505
499
505
517
515
505
497
505
516
515
506
499
506
518
517
505
499
507
518
517
507
500
507
517
516
505
498
505
516
515
505
499
505
520
515
504
499
507
518
518
506
499
508
518
516
506
501
508
519
517
507
504
508
519
516
506
501
508
520
519
508
503
509
519
518
507
500
507
519
518
510
504
509
519
519
504
503
511
521
518
507
502
509
520
518
508
503
510
522
519
508
502
510
522
518
511
504
512
527
528
518
512
519
530
528
515
510
517
527
524
514
513
521
529
524
514
510
517
528
523
508
503
511
520
519
508
503
510
521
518
508
502
509
522
520
508
504
514
532
541
545
554
576
600
607
593
571
552
532
501
468
453
457
472
479
477
480
496
511
512
504
498
505
519
517
506
500
508
518
520
512
508
515
525
522
512
507
513
525
523
512
507
514
524
521
511
508
521
533
530
518
512
519
530
528
518
514
524
535
533
522
518
524
535
530
519
511
515
526
524
513
509
514
517
516
505
502
508
515
509
498
496
499
515
512
502
496
503
515
512
500
496
503
514
512
501
495
503
514
510
499
496
504
514
513
502
496
503
514
512
502
497
504
515
512
501
496
504
515
514
503
498
506
516
513
503
499
505
516
514
502
499
508
519
516
504
498
508
518
515
505
499
508
519
516
504
501
508
517
515
505
501
508
518
514
504
500
508
519
516
503
499
507
516
515
505
500
508
519
515
504
500
507
519
517
507
502
510
521
518
508
500
509
520
517
505
501
510
521
518
505
502
510
521
518
507
502
510
520
516
507
504
511
521
519
508
504
511
524
526
515
510
517
528
525
514
511
517
528
525
515
514
523
530
524
512
507
516
527
522
508
503
508
519
516
504
503
510
520
517
506
502
510
519
514
505
502
513
528
534
537
549
571
593
603
595
580
564
546
513
477
458
457
469
474
473
479
495
511
509
501
499
508
516
512
502
499
506
516
513
506
507
515
525
522
511
508
516
524
520
510
507
515
524
521
510
506
518
529
527
516
512
520
529
525
513
511
520
535
533
521
517
524
534
530
518
508
515
524
522
512
508
515
521
515
503
502
507
516
509
497
495
505
513
507
498
496
505
514
510
499
497
505
513
511
499
496
504
515
511
500
497
504
515
512
501
498
507
518
513
503
498
507
517
512
502
499
507
517
513
500
499
507
517
512
503
500
508
517
512
502
499
508
518
514
503
501
509
518
516
505
503
510
518
515
504
502
512
521
516
504
501
510
518
515
504
500
511
522
517
510
504
512
521
516
504
501
510
521
517
506
504
512
520
514
505
503
513
522
518
507
504
513
519
517
508
505
512
521
517
505
503
512
521
517
506
503
512
523
519
508
503
512
523
519
508
505
514
524
523
512
512
520
529
526
512
511
519
528
521
512
512
524
532
524
511
510
518
528
524
508
503
510
520
516
505
503
512
521
516
505
503
511
521
517
506
502
513
527
531
532
544
567
589
597
592
586
574
556
520
484
462
462
469
470
470
477
492
508
507
499
500
508
515
513
503
501
509
519
514
504
507
514
525
520
509
506
516
524
520
509
505
515
525
521
509
506
519
533
528
514
512
520
529
524
515
512
522
535
532
522
519
526
535
530
519
514
520
528
523
511
510
519
525
516
504
504
512
520
511
497
495
506
516
511
500
496
507
514
509
499
497
507
515
511
497
498
507
516
512
501
499
508
516
508
499
498
507
514
510
500
497
507
514
512
500
499
508
517
512
500
499
505
517
512
501
499
507
516
511
500
497
510
518
513
501
500
509
518
513
500
501
511
519
514
503
500
510
518
512
501
500
510
519
514
503
502
511
518
517
503
501
511
519
516
505
505
512
520
516
506
506
513
521
516
504
501
512
521
516
504
504
513
521
516
503
503
512
520
516
505
504
515
521
513
505
504
512
522
516
503
503
513
519
516
504
503
512
521
521
514
513
519
529
524
512
510
519
528
523
511
508
523
534
525
510
509
519
528
522
505
502
509
518
514
504
504
512
521
512
502
503
513
521
515
504
503
513
524
525
525
538
562
586
593
592
592
584
569
533
494
470
466
469
466
463
471
492
507
506
497
501
513
520
513
500
501
511
519
513
504
507
518
526
518
508
508
516
525
519
507
507
517
522
519
508
507
517
529
525
513
512
519
530
525
512
511
521
533
531
521
518
529
536
530
518
515
520
526
520
508
511
521
527
516
503
503
514
521
507
496
496
508
516
510
499
499
507
513
509
498
499
508
516
511
499
498
507
514
509
499
498
508
516
509
498
497
509
515
509
498
498
510
517
509
497
501
509
517
510
499
499
511
518
512
501
501
510
516
511
501
502
511
515
510
499
500
511
519
512
501
502
512
518
512
502
502
511
519
513
501
499
510
517
511
500
500
510
518
512
499
503
513
520
513
501
501
512
519
512
501
502
512
520
514
503
504
513
519
514
505
505
515
523
517
505
504
512
521
515
504
505
516
523
516
505
503
515
522
515
504
505
515
521
514
501
504
515
521
518
510
512
521
527
519
510
512
522
528
522
511
510
524
532
525
510
511
522
528
520
508
506
512
520
513
502
504
514
521
514
503
502
514
520
514
503
504
515
523
522
516
533
556
578
585
588
594
596
582
544
503
478
471
470
463
459
470
490
503
505
496
500
513
520
512
499
499
512
518
512
500
505
518
524
518
507
505
518
526
520
509
510
520
526
518
505
509
519
529
525
515
515
524
531
521
511
513
524
532
529
520
519
528
532
528
518
519
527
528
519
508
511
520
527
516
505
504
514
520
509
495
494
507
513
507
497
498
508
514
507
495
499
509
514
508
498
499
509
516
507
498
499
509
515
509
498
500
511
515
509
499
501
512
517
510
499
499
507
516
510
498
501
512
518
510
499
498
510
516
510
499
501
511
516
509
498
502
513
519
512
501
504
515
519
512
501
504
514
520
512
502
505
512
519
513
501
503
515
520
512
503
504
512
519
512
502
504
515
520
512
502
503
516
522
514
503
505
516
521
514
501
505
516
522
515
503
506
516
521
512
504
506
517
522
515
504
507
517
520
515
504
506
516
521
514
503
506
514
522
516
511
516
527
530
522
511
512
523
528
521
510
511
524
533
525
512
512
522
527
519
510
509
517
520
512
503
505
515
520
514
503
506
517
519
514
503
505
516
523
518
514
529
553
575
578
581
592
602
590
555
515
487
480
470
461
455
467
487
500
501
491
499
513
518
509
499
501
511
515
506
499
505
520
526
517
505
508
519
520
515
507
510
523
526
517
505
508
517
526
521
512
515
526
530
522
512
512
524
529
526
520
523
532
535
527
514
519
527
526
517
507
511
522
525
513
501
502
513
517
507
493
496
509
512
506
496
499
510
512
504
494
497
507
514
506
496
499
510
513
505
496
497
510
514
506
497
501
511
515
507
495
500
510
513
506
497
502
512
516
506
499
502
513
517
508
499
503
515
515
508
499
503
516
520
511
501
505
514
519
511
502
506
517
519
511
502
504
518
521
512
503
510
519
523
514
500
505
516
520
512
502
505
516
522
512
503
506
518
520
512
503
506
516
517
511
502
507
517
520
512
503
508
516
521
512
503
506
518
521
513
503
505
518
520
512
504
506
518
521
513
501
508
519
522
513
503
507
519
522
512
508
515
527
530
521
511
514
525
525
518
509
513
526
531
526
512
511
521
525
517
509
512
518
518
509
501
503
517
519
511
503
507
518
520
512
499
506
517
519
514
509
523
548
565
568
575
590
605
596
565
527
503
488
472
459
449
461
484
496
494
490
500
512
518
511
500
504
514
517
508
500
503
521
526
518
509
512
523
524
516
505
511
523
522
516
507
512
523
525
517
513
518
530
531
521
512
517
528
529
524
518
524
534
535
526
516
521
530
528
517
508
513
524
524
517
503
501
515
519
511
498
498
510
512
507
493
502
511
511
503
495
501
511
512
501
498
500
512
515
506
497
502
514
513
505
496
502
511
513
505
496
502
512
514
506
498
503
513
515
507
498
501
514
516
506
498
504
516
516
507
496
504
515
517
508
499
503
514
515
504
500
505
516
516
507
499
505
517
517
510
499
506
519
519
509
500
506
515
520
510
502
507
517
518
509
500
503
518
519
510
503
508
520
519
509
499
506
519
518
507
499
506
518
519
507
502
507
518
519
510
502
508
517
519
512
503
508
520
521
511
502
508
520
520
512
505
509
520
521
512
505
513
529
529
519
511
517
528
528
518
507
514
524
528
520
513
515
525
526
515
509
515
522
519
507
500
508
520
517
509
501
507
519
519
508
504
505
515
519
511
507
521
544
558
563
570
587
607
602
573
538
514
499
479
460
447
461
482
491
489
490
500
513
515
503
499
505
515
514
505
498
504
518
519
514
506
511
521
523
515
507
513
521
522
511
504
511
522
521
515
512
517
529
528
518
511
517
529
528
520
514
524
535
534
523
515
521
532
529
515
504
513
525
524
514
503
506
516
515
509
499
500
509
508
499
492
499
508
509
502
495
501
513
512
502
496
499
512
512
503
495
501
512
512
503
495
503
515
515
503
496
503
515
516
505
500
505
515
515
504
498
504
516
515
504
497
505
516
515
506
499
507
515
514
504
498
505
517
516
506
500
505
517
517
507
501
508
519
517
506
499
505
517
517
506
500
507
517
516
505
500
506
517
516
507
501
507
518
517
508
500
507
519
518
507
503
510
519
518
507
501
508
520
518
508
503
509
521
519
510
505
511
522
521
510
502
510
522
520
510
504
510
521
519
507
505
511
522
520
511
505
515
530
528
518
512
518
529
527
515
510
518
527
526
519
515
518
526
523
512
508
515
525
519
507
501
509
521
519
504
503
510
520
517
508
504
510
521
519
508
506
519
539
551
556
564
584
606
605
581
550
528
511
485
461
451
461
478
486
484
486
498
511
512
504
498
503
515
513
503
499
507
520
521
513
507
514
524
523
512
506
513
525
523
512
507
514
524
521
512
510
520
532
527
517
511
519
530
527
516
513
525
536
534
523
518
526
535
527
516
509
515
527
525
515
508
511
519
517
507
500
503
511
508
499
495
502
514
512
499
495
502
512
511
501
496
502
512
509
501
497
505
517
514
503
498
505
515
513
502
497
503
514
511
500
497
503
515
512
502
497
505
516
514
503
497
506
516
513
502
497
505
516
514
502
500
507
518
515
504
499
508
518
514
504
500
508
519
516
505
500
508
518
517
506
501
509
519
517
506
501
508
519
517
506
502
510
520
518
507
501
511
521
518
505
501
509
520
517
505
502
509
520
518
507
504
511
520
515
505
503
512
521
518
508
505
513
522
519
506
502
510
521
518
506
504
512
522
519
508
504
515
529
527
514
509
519
530
526
515
513
520
528
523
514
517
524
529
524
514
511
519
528
519
506
503
512
522
517
505
502
510
520
516
505
503
511
521
518
507
505
516
535
544
548
559
580
603
605
587
561
542
521
493
465
453
458
475
481
479
484
500
513
512
503
500
508
516
512
502
500
509
518
518
509
507
515
525
522
511
507
515
523
519
507
504
512
522
519
508
510
522
531
526
514
510
519
529
526
514
512
524
535
531
519
519
526
535
530
515
509
516
525
521
511
509
514
519
514
504
502
507
512
508
498
496
505
513
510
499
497
503
513
509
498
497
505
514
510
499
495
506
515
510
498
496
505
515
510
497
496
506
515
510
500
499
508
516
511
500
500
508
518
513
501
500
509
517
513
501
499
507
516
511
499
499
507
517
513
502
500
509
519
515
504
500
511
519
514
502
501
510
518
514
503
502
510
519
515
504
503
512
520
513
503
501
510
518
514
503
502
512
519
516
503
501
510
519
514
505
503
510
520
516
505
503
512
519
514
504
498
511
519
514
503
502
512
521
517
505
503
512
521
516
506
504
513
521
515
506
505
514
527
526
515
511
519
526
523
513
511
520
528
524
513
516
523
529
522
510
510
520
529
522
506
501
512
521
516
506
506
514
522
518
506
506
515
524
519
507
506
518
532
538
541
554
577
599
604
592
574
555
533
501
470
457
461
472
476
475
483
498
513
511
501
500
510
519
513
502
499
510
519
518
510
511
519
525
519
506
507
517
524
518
507
506
515
524
518
507
508
520
531
525
513
513
521
529
526
514
512
525
536
531
520
518
526
535
530
517
512
519
527
521
510
508
516
521
514
503
502
510
513
507
495
496
508
516
510
499
498
507
517
508
498
498
507
513
509
499
499
508
515
511
500
499
509
517
511
501
500
507
516
510
500
500
510
518
517
502
499
510
518
512
501
501
511
519
513
501
502
512
519
513
503
502
511
519
512
502
502
511
518
512
502
502
511
519
515
504
503
511
518
513
502
503
513
520
514
502
503
513
521
515
504
502
512
520
515
504
503
513
521
515
503
504
514
521
515
504
505
515
522
514
503
503
512
520
514
503
504
514
519
515
504
504
514
520
515
505
506
516
524
517
505
505
514
521
515
504
504
515
523
523
513
513
522
529
523
512
512
522
529
522
511
513
526
532
521
510
511
522
529
521
505
502
511
519
516
505
504
513
522
516
505
504
513
521
516
505
506
518
530
532
536
548
573
594
600
593
582
569
547
512
475
461
464
470
470
469
479
497
509
505
498
500
510
517
510
499
499
509
515
510
508
508
518
524
516
505
506
515
522
517
507
508
518
524
518
506
506
521
530
524
511
512
523
529
522
510
511
522
535
529
518
518
528
535
527
517
514
519
524
520
509
510
518
519
510
500
501
513
516
506
494
496
506
512
507
496
497
507
514
508
500
497
508
515
508
498
499
509
516
509
497
498
509
516
509
498
500
510
517
509
499
500
510
516
510
499
500
510
517
512
501
502
511
516
510
499
501
510
519
513
503
504
513
519
512
501
502
513
520
514
503
504
514
519
510
499
502
512
518
511
500
503
514
522
514
501
502
512
519
513
503
504
515
519
512
501
504
514
520
514
503
504
514
521
514
503
505
516
521
514
503
503
516
523
515
503
506
516
522
515
503
506
516
521
515
504
505
515
521
513
504
505
516
522
516
505
506
517
524
521
513
514
523
527
521
512
512
521
527
520
510
513
528
533
523
509
510
521
527
520
505
503
512
518
513
500
503
514
520
515
505
505
515
521
513
504
506
516
526
526
528
544
568
587
594
592
591
582
560
522
484
467
466
469
467
465
476
495
507
504
495
498
511
516
509
499
501
512
518
512
503
508
520
525
518
508
510
521
525
516
506
508
519
524
516
505
507
521
527
524
513
514
523
528
522
512
513
523
532
529
519
521
531
534
527
516
515
522
525
519
508
510
521
523
512
499
504
515
519
506
493
494
508
513
505
495
497
509
514
506
495
498
509
513
507
496
500
511
516
507
497
499
509
516
508
497
500
511
516
508
498
499
510
515
507
497
500
510
516
509
496
500
511
517
509
497
501
512
518
509
499
503
514
519
511
500
503
515
518
511
500
502
513
519
512
503
505
514
519
511
500
503
515
521
514
503
505
517
522
514
504
507
517
521
513
502
506
517
521
513
502
505
516
521
513
503
506
516
521
514
503
506
519
519
512
502
505
516
521
514
504
511
516
522
514
503
506
518
522
513
503
504
517
522
513
503
506
518
521
518
511
513
523
528
522
510
513
523
527
521
509
510
524
532
520
507
509
520
525
519
507
505
513
517
511
502
503
514
519
511
501
504
516
519
511
501
505
517
523
519
519
537
565
583
589
589
593
590
570
534
495
475
471
468
461
461
475
494
505
503
496
503
514
518
509
499
502
514
519
512
501
508
522
527
518
508
511
523
526
517
507
509
522
524
516
506
510
526
529
524
513
516
526
530
523
512
515
525
531
527
520
522
532
535
527
516
519
525
524
516
508
514
524
527
514
501
505
516
519
507
494
498
510
514
505
495
498
510
513
504
496
500
511
514
508
496
500
510
514
508
499
502
512
515
505
496
501
513
516
508
499
503
513
515
508
498
503
515
519
510
500
504
513
517
510
500
503
514
516
509
500
503
515
517
509
499
503
516
519
509
499
504
516
520
511
500
504
516
519
510
502
507
519
520
511
502
507
518
519
511
502
507
518
519
511
501
505
516
519
511
501
506
519
522
512
502
505
518
520
511
502
506
518
521
512
501
507
519
520
511
503
507
518
521
511
502
506
517
520
511
504
508
519
520
512
503
507
518
521
516
511
516
527
529
519
508
513
525
528
519
510
512
525
532
522
510
512
524
526
518
507
509
517
517
509
501
507
519
520
510
502
508
519
520
511
502
507
518
522
518
515
532
558
575
580
584
595
599
581
545
504
484
478
470
459
456
469
491
502
500
494
502
515
516
506
497
502
513
515
506
499
508
523
525
513
504
509
521
522
514
506
511
522
523
513
505
510
521
526
520
513
517
526
529
520
511
519
527
529
525
519
523
533
533
525
516
520
528
525
514
505
512
523
525
513
500
504
516
517
503
493
499
510
512
503
494
498
510
511
503
494
498
510
512
504
496
501
512
514
505
496
501
512
514
504
497
501
514
515
506
498
504
516
517
507
498
504
515
515
505
498
503
514
515
506
498
504
515
517
508
500
505
517
516
507
499
505
516
516
507
500
505
515
517
508
500
506
518
519
510
502
505
517
516
507
501
506
517
518
509
500
507
519
519
510
503
509
521
522
512
505
509
520
521
511
502
507
519
519
511
503
508
520
521
512
503
507
518
520
511
503
508
519
520
511
503
507
519
519
510
504
511
521
521
512
503
511
521
522
512
508
516
528
528
517
509
515
526
526
516
508
515
527
531
522
511
514
525
525
516
508
513
519
517
507
500
507
519
519
512
502
507
519
519
510
502
508
518
518
512
511
529
555
568
573
579
595
606
590
554
517
494
484
471
457
453
467
490
496
494
490
499
513
516
506
499
505
515
514
505
499
506
521
522
514
506
511
523
523
513
505
511
519
521
512
505
513
524
524
518
512
519
529
529
519
513
517
527
527
522
518
525
535
533
524
518
524
533
526
513
507
514
525
526
513
502
506
517
517
506
495
499
511
510
500
494
501
513
512
502
495
502
513
511
501
494
501
512
513
503
496
503
513
512
502
497
503
514
514
504
497
504
515
514
504
498
505
516
516
506
500
506
516
516
507
500
507
518
516
506
499
505
517
517
507
500
507
518
519
505
499
505
517
517
507
500
507
519
517
506
500
508
519
516
507
500
507
518
516
507
501
507
517
516
507
501
508
520
518
507
500
506
518
517
507
501
508
520
518
508
503
509
520
519
508
503
510
522
520
508
503
511
522
516
509
502
509
520
518
509
503
511
523
520
509
504
511
521
519
508
506
518
531
528
517
511
516
527
526
516
510
515
525
528
521
511
515
524
522
513
509
515
521
516
503
501
506
521
519
509
504
510
521
519
508
502
509
517
522
511
510
524
549
563
567
575
594
610
599
564
530
506
492
473
456
450
465
486
493
489
490
499
514
515
504
499
504
515
513
502
499
508
522
522
511
506
513
523
522
511
506
513
523
521
511
506
514
523
521
514
513
522
532
529
517
511
517
529
526
517
516
525
535
533
521
516
524
533
527
512
506
515
525
523
511
503
508
518
517
505
497
502
511
508
499
495
503
514
512
500
494
502
512
510
499
495
503
514
511
500
495
502
513
511
499
496
505
516
513
503
499
508
518
514
502
498
506
518
516
504
499
507
517
514
503
498
506
516
514
504
500
507
518
516
504
501
509
520
517
507
502
510
520
517
504
501
508
518
515
504
500
509
519
515
504
500
508
519
515
505
502
510
520
517
505
503
511
522
518
507
502
511
521
517
505
502
511
523
519
507
502
510
520
519
508
503
512
521
518
506
503
511
521
516
505
501
510
520
519
508
503
512
522
518
508
504
512
521
517
505
506
516
529
525
514
511
519
528
523
513
509
517
527
525
518
514
519
525
521
510
508
517
523
515
504
501
509
518
515
505
503
512
520
516
504
501
511
522
518
508
509
524
545
555
557
568
589
609
603
572
543
522
504
479
456
450
463
483
489
486
490
502
515
514
503
500
508
517
512
501
499
507
519
519
510
507
514
524
520
509
505
515
525
521
509
506
514
524
521
511
512
521
530
525
513
511
521
530
525
515
517
527
537
531
520
517
524
533
527
511
508
517
525
520
510
507
512
518
513
503
500
504
513
509
498
495
504
514
510
499
497
505
515
510
498
496
505
514
510
499
497
506
516
510
499
496
505
515
512
501
499
508
515
510
499
497
507
517
513
501
499
508
518
513
501
499
508
517
513
503
499
510
519
515
504
501
511
518
514
503
502
510
519
515
505
503
512
521
515
504
503
512
520
515
505
503
512
519
515
504
503
512
521
516
505
502
510
520
516
506
508
514
522
516
505
503
513
521
516
505
504
514
523
517
506
504
512
521
516
505
506
514
522
517
506
505
515
523
517
506
505
512
519
516
505
504
515
523
517
505
505
517
529
525
514
512
521
529
523
512
511
521
530
524
516
516
522
528
523
512
512
521
528
519
504
503
514
522
515
504
505
514
522
516
505
504
514
522
515
504
508
523
540
549
551
565
587
607
604
579
554
534
514
487
459
451
464
482
484
481
488
504
514
512
500
500
509
517
511
500
499
509
517
516
507
507
516
524
518
507
507
521
525
518
507
506
516
524
519
508
513
525
532
524
512
512
522
531
523
512
515
529
538
530
517
518
527
534
526
508
507
518
525
521
509
508
514
520
513
503
502
507
511
506
496
497
507
513
507
496
497
507
515
509
498
500
508
516
509
497
497
507
515
509
497
498
508
515
510
498
499
508
515
509
496
500
509
516
510
498
499
509
517
509
499
500
510
517
510
499
501
511
518
512
501
503
514
520
513
502
502
511
520
515
504
505
514
521
514
503
503
514
520
514
503
505
514
521
514
502
504
513
519
514
503
503
513
519
513
503
503
512
520
515
504
504
515
521
515
504
505
515
522
515
503
504
515
521
515
503
504
514
520
513
503
503
515
521
515
504
505
515
520
514
501
504
515
522
515
503
503
515
526
521
511
512
522
529
522
511
512
521
527
521
513
518
526
528
519
508
511
521
527
516
500
502
512
519
512
502
503
514
519
511
500
504
514
520
513
502
506
520
532
537
543
560
584
603
603
586
566
548
524
491
462
456
463
475
477
477
485
503
512
507
499
502
512
516
509
498
501
512
519
513
507
509
520
525
518
507
508
519
524
518
508
508
519
523
516
506
512
525
530
524
513
515
527
531
522
511
515
529
536
529
517
519
529
534
526
512
512
522
526
519
510
511
518
518
509
499
502
509
509
501
492
497
509
514
507
496
497
508
513
506
497
499
510
514
508
496
499
511
515
507
497
499
511
517
510
498
502
512
516
508
498
501
513
517
510
499
501
512
516
508
499
503
514
518
510
500
503
514
518
510
500
503
513
518
510
500
504
515
519
511
501
503
516
519
511
501
504
514
519
510
501
504
516
519
512
502
505
517
520
513
504
505
517
520
513
503
507
517
520
513
504
506
518
521
513
503
506
518
522
514
503
507
518
522
515
503
506
518
522
514
503
505
518
522
513
503
508
518
521
513
504
507
519
522
514
504
508
519
526
522
514
517
526
529
521
511
515
525
529
521
511
517
529
529
518
508
512
523
527
517
501
502
514
520
512
501
504
518
521
512
502
507
518
520
511
503
507
522
530
532
537
556
581
597
600
590
580
566
538
502
470
461
468
473
473
475
487
505
512
506
499
504
515
517
509
499
504
515
517
511
506
513
524
526
516
507
511
522
524
515
506
510
522
523
515
504
510
525
529
521
512
516
526
529
521
511
515
530
536
528
518
521
533
536
526
515
515
524
526
519
511
514
523
521
510
500
504
515
515
505
496
500
511
512
504
495
499
511
513
505
496
500
511
513
506
497
503
513
515
506
498
502
513
515
508
499
505
516
518
508
497
500
512
514
507
496
503
515
517
508
499
504
516
518
507
499
504
517
517
509
501
506
518
518
510
501
506
517
518
510
502
508
518
518
508
500
506
518
519
509
502
505
517
518
509
501
507
519
520
511
502
507
519
520
511
502
507
517
519
510
503
508
518
519
510
502
506
518
519
510
502
509
519
519
510
502
509
519
519
510
502
507
518
517
510
503
508
519
520
511
503
508
519
520
511
503
509
520
523
518
512
516
526
527
518
510
515
526
526
517
509
517
532
530
516
506
511
524
526
516
503
507
517
517
508
500
507
517
519
508
502
507
517
518
509
503
508
523
527
526
530
550
576
591
593
590
585
575
549
510
478
466
470
470
466
467
483
503
509
502
498
506
517
518
508
499
505
516
517
509
505
514
526
524
514
507
512
524
524
514
507
512
523
523
514
506
512
526
530
521
513
517
528
528
518
511
518
531
534
525
517
523
535
532
523
516
518
526
524
514
506
513
524
520
509
500
506
518
513
500
492
499
511
511
502
495
502
513
513
504
496
502
513
512
502
498
501
513
514
504
496
503
515
515
508
498
504
516
514
505
498
505
516
514
504
499
507
517
516
507
499
505
516
514
505
500
505
517
517
505
498
505
518
516
507
500
507
518
517
507
500
507
518
518
507
501
507
518
516
507
501
507
519
518
508
501
508
520
519
509
503
510
519
518
508
502
508
520
520
509
504
510
521
519
510
503
509
520
519
510
502
509
521
520
509
503
510
521
521
511
505
511
522
521
511
504
511
522
521
511
505
510
521
519
509
504
511
523
521
515
512
519
529
526
515
511
518
528
523
515
509
518
533
531
519
509
515
526
525
515
506
509
518
518
509
504
509
519
518
511
504
510
523
520
509
503
509
522
524
519
525
547
572
584
587
590
594
587
558
517
487
472
471
464
458
463
480
500
503
497
495
506
517
515
502
497
504
517
517
505
502
513
524
521
511
506
513
525
521
512
507
514
524
521
510
505
513
525
526
517
513
519
529
526
515
510
517
528
528
519
516
523
533
530
519
514
519
527
522
512
508
515
526
522
508
500
507
519
516
501
493
500
513
511
499
493
501
511
509
500
496
504
514
511
500
497
505
515
512
501
498
504
515
512
502
498
507
518
515
504
498
505
516
514
502
497
505
516
513
502
499
507
517
515
504
500
508
519
514
504
502
510
520
516
505
501
509
519
515
506
502
509
517
515
505
502
510
519
516
506
501
508
520
517
508
502
510
520
516
506
502
510
520
517
505
502
511
521
519
507
502
509
521
517
508
504
511
522
519
508
504
513
521
518
508
504
512
523
520
508
504
511
521
517
507
504
512
522
517
508
504
512
522
518
508
504
513
522
519
510
511
520
530
525
514
511
519
529
524
514
511
520
532
530
516
509
515
526
524
512
508
513
519
515
505
504
511
520
515
505
501
509
519
517
507
504
512
521
521
515
522
544
568
578
580
589
601
599
571
530
498
482
478
465
455
460
479
497
499
495
494
506
516
512
501
499
506
516
512
501
499
512
523
520
508
506
514
524
519
509
505
513
523
518
507
505
515
526
526
516
513
520
530
526
515
511
520
529
526
521
520
528
536
530
518
516
525
528
521
509
508
518
526
520
504
499
507
518
514
499
494
502
512
508
498
495
505
515
511
498
496
506
516
511
499
497
506
514
511
499
498
507
517
511
499
497
507
516
511
499
499
509
516
511
501
499
508
517
511
501
502
508
517
512
500
499
508
517
512
502
499
509
519
514
502
500
509
519
516
504
502
511
519
513
502
500
509
518
513
502
501
511
520
515
504
501
511
519
516
506
505
515
522
516
504
503
512
520
515
504
503
513
520
515
504
501
511
520
516
505
503
512
520
515
505
505
514
522
516
505
504
513
523
518
507
507
515
523
519
507
507
515
522
516
504
504
515
523
518
508
511
521
529
523
512
510
519
527
522
511
512
521
530
529
517
513
519
528
524
513
512
517
521
516
506
506
514
522
515
504
505
514
521
516
505
505
516
521
518
511
518
540
563
571
573
585
603
606
579
540
510
494
482
468
455
458
479
498
498
493
496
509
518
515
502
502
512
520
513
502
503
516
529
524
512
511
519
527
522
511
511
519
526
519
508
507
517
524
521
514
516
525
532
525
513
514
523
531
525
519
520
530
536
529
518
518
528
532
522
508
510
522
528
521
506
503
512
519
513
499
496
505
512
507
497
497
507
513
507
496
497
507
514
508
496
497
506
513
508
498
499
509
517
510
500
499
508
516
511
500
500
509
516
511
498
499
508
515
511
500
501
511
519
512
500
500
510
516
512
500
500
511
518
512
502
504
512
518
512
502
504
513
519
512
500
502
512
519
513
503
503
512
520
513
503
503
512
519
514
502
504
514
519
513
503
505
514
523
514
502
504
513
519
513
503
503
513
519
514
502
503
513
520
514
504
505
514
522
517
504
504
515
520
513
503
505
515
520
513
504
504
515
521
516
505
505
515
521
514
504
509
521
530
522
511
512
523
529
522
511
512
523
529
526
515
513
520
528
522
512
513
521
522
512
500
502
513
519
513
503
504
515
522
516
505
505
514
520
515
506
513
534
556
564
567
580
602
609
586
549
521
504
488
468
451
455
476
491
492
487
494
507
516
512
500
502
512
517
510
498
500
512
523
519
509
508
517
523
517
506
508
520
525
517
505
508
518
523
518
512
517
527
532
524
513
515
525
530
523
517
522
533
537
529
518
520
530
533
521
508
511
522
528
520
508
507
515
520
514
503
500
508
513
506
496
500
509
513
507
495
498
509
515
508
497
500
510
515
508
497
499
511
517
509
499
501
511
516
508
499
498
512
518
511
499
502
511
517
510
499
502
513
518
511
499
500
511
518
511
501
502
513
517
511
500
502
512
517
510
500
502
512
518
511
501
505
515
519
512
502
503
515
519
512
501
505
516
519
511
500
504
515
520
512
501
504
514
519
511
502
504
516
520
514
504
508
518
521
514
504
506
515
520
511
502
505
516
522
512
503
507
518
522
515
503
506
518
522
514
502
505
517
522
514
504
506
516
520
513
504
510
526
531
522
511
514
524
528
519
510
513
525
529
524
517
517
524
527
518
508
512
523
524
513
501
506
516
521
513
503
505
518
521
513
503
506
517
521
513
505
513
532
549
557
561
577
600
609
593
561
536
519
497
471
452
454
472
486
487
484
495
509
516
510
500
503
513
517
509
499
502
515
522
517
508
511
522
524
515
506
511
521
525
516
505
509
518
523
516
512
518
527
529
521
511
514
525
529
521
514
520
533
536
527
518
522
532
535
523
509
511
522
526
519
509
510
517
520
512
503
503
512
513
505
496
501
512
514
505
496
502
513
516
508
498
501
513
514
506
498
502
512
514
506
498
503
513
515
508
497
502
513
515
505
497
501
512
517
507
498
502
513
516
508
497
504
515
519
511
501
504
516
519
510
500
504
515
517
509
500
503
514
517
509
502
504
514
517
510
501
506
516
517
511
500
504
517
519
510
502
505
515
519
509
500
504
515
518
510
503
508
519
519
510
501
506
517
520
511
502
507
518
521
512
505
508
519
520
511
502
507
519
521
512
502
506
517
519
511
502
504
519
521
512
503
507
519
522
513
504
510
527
530
522
512
516
527
529
518
510
514
525
527
519
515
521
528
527
517
508
513
525
524
511
502
506
518
521
512
503
508
519
521
513
502
507
518
521
513
504
512
529
543
548
554
572
596
606
596
571
551
535
507
476
454
454
470
481
483
482
494
507
512
506
499
504
515
516
507
500
502
515
519
515
508
512
523
524
516
507
512
523
523
514
505
510
521
524
513
506
516
529
530
519
511
516
527
529
520
511
520
535
536
526
517
522
534
535
522
509
513
525
525
515
509
510
517
516
507
500
502
510
509
502
493
499
511
512
503
495
501
512
514
504
496
500
511
511
502
496
502
515
515
505
495
501
514
515
505
498
504
515
515
505
497
503
514
514
505
498
503
515
516
506
497
503
514
516
507
498
505
516
516
506
499
506
517
519
508
499
505
516
520
508
500
505
517
516
507
499
504
515
515
505
497
505
516
517
507
500
507
519
518
508
501
506
517
517
507
500
506
518
517
508
501
508
518
517
507
500
508
519
521
510
503
508
519
520
512
504
509
522
520
510
503
509
521
520
511
505
511
520
520
511
505
511
523
522
512
507
511
525
528
518
510
516
527
526
518
509
515
526
527
518
512
520
529
527
515
509
516
528
526
511
501
507
519
519
509
502
508
520
520
511
504
511
520
519
509
503
512
528
537
540
549
568
592
604
599
580
563
545
516
483
459
458
470
477
477
478
491
510
511
504
500
507
517
515
505
498
505
518
516
510
507
514
525
523
512
506
514
524
523
512
505
511
523
522
511
507
517
531
531
520
513
519
530
528
519
511
520
535
537
527
518
523
533
533
522
511
514
525
525
516
509
514
522
517
506
501
509
516
512
500
493
503
514
512
502
497
503
514
513
502
497
503
515
514
503
497
504
516
515
506
498
504
516
514
504
498
504
515
515
503
497
503
516
515
504
496
503
516
514
504
498
504
516
515
505
499
507
517
515
506
501
507
518
517
507
502
508
518
515
505
499
506
519
515
506
499
506
517
516
505
500
508
519
518
507
501
507
518
517
506
501
508
522
519
508
502
509
520
518
508
503
511
521
518
504
502
508
520
519
508
503
509
520
517
507
501
508
519
517
509
502
509
519
516
506
502
510
521
521
509
503
509
520
519
508
503
510
524
526
518
512
519
529
527
515
510
519
527
525
516
511
523
532
527
515
511
516
527
525
511
502
507
519
518
510
503
511
521
518
507
502
509
521
521
509
504
512
527
531
532
544
566
590
598
595
586
575
559
527
489
465
464
470
471
470
474
490
508
509
502
501
507
516
515
504
499
506
518
514
509
506
515
525
522
511
507
514
524
522
511
506
514
524
521
511
506
516
531
528
517
511
519
530
526
514
509
519
533
532
521
516
523
533
531
520
513
515
524
523
512
507
515
523
517
505
499
506
514
510
497
494
503
514
513
501
496
503
513
511
501
497
504
517
513
502
498
506
516
515
503
498
506
515
512
502
499
507
515
513
502
499
505
515
512
503
499
506
516
514
503
497
505
516
513
502
498
507
516
513
501
497
506
517
514
504
499
507
519
515
503
498
505
517
515
505
501
510
518
515
505
501
509
519
515
504
503
509
519
516
504
500
510
521
516
507
502
509
519
516
505
502
510
521
519
506
501
509
520
516
505
502
510
521
516
505
503
512
522
518
508
504
513
521
517
505
502
510
520
517
506
505
511
521
518
506
503
511
521
521
515
511
519
528
525
513
510
520
529
525
512
509
522
532
525
511
508
518
529
524
510
504
510
521
517
506
504
513
521
518
506
502
510
521
518
507
504
512
525
527
526
537
560
583
592
594
591
586
572
538
498
473
466
471
471
465
472
489
507
508
500
500
511
521
515
503
499
509
519
515
505
506
518
526
521
510
508
516
525
521
511
509
515
524
520
509
507
518
531
530
520
513
521
530
526
513
511
519
532
534
523
520
527
535
530
519
516
520
527
521
512
511
519
527
518
504
501
511
519
510
496
494
502
512
508
497
497
504
513
508
497
496
504
513
509
500
496
505
515
511
499
496
506
514
511
498
496
505
514
510
498
496
505
516
510
499
497
508
517
512
500
498
508
516
512
500
499
509
517
512
501
501
508
518
513
502
499
509
519
515
505
501
509
519
515
503
502
511
519
516
504
503
511
520
516
504
502
511
522
515
504
502
511
520
515
504
504
514
521
514
503
502
512
521
515
504
504
512
520
516
504
503
512
521
516
507
504
512
521
516
503
504
514
522
517
504
504
512
521
516
506
506
515
526
517
505
505
515
523
519
512
515
524
530
524
513
513
523
531
525
512
511
524
536
530
513
511
520
529
526
514
507
513
522
516
504
504
513
522
519
506
505
514
522
516
506
505
513
524
523
519
531
556
579
586
587
592
597
583
549
506
480
471
471
463
458
469
487
502
503
494
498
509
518
513
499
499
507
517
513
502
505
519
527
522
508
508
517
525
519
508
508
516
525
518
507
507
516
527
527
516
514
524
531
525
514
513
522
531
530
521
522
528
535
529
518
517
523
527
521
511
511
520
527
518
502
501
511
519
511
495
494
503
512
508
498
498
507
515
507
496
497
507
513
508
497
498
508
515
509
496
496
508
517
511
498
499
508
516
509
498
500
511
518
513
502
501
510
517
511
500
500
511
519
515
502
499
510
518
512
502
502
510
519
512
502
503
512
519
514
503
503
515
521
515
503
504
515
521
514
502
504
513
520
513
504
505
515
522
515
505
504
513
519
513
502
504
514
520
515
503
504
514
520
513
502
502
512
521
514
502
504
514
520
514
503
505
517
521
514
501
502
513
519
513
502
506
516
523
514
502
504
516
523
518
506
506
515
521
515
509
513
524
529
522
510
512
522
527
521
510
510
522
533
525
511
509
518
527
520
510
509
515
520
513
502
504
515
521
513
502
505
514
521
515
503
505
516
521
519
514
525
550
572
579
580
591
601
591
559
517
490
480
473
462
455
465
485
500
499
494
498
512
518
510
499
500
511
516
509
499
504
518
526
518
507
510
519
525
517
507
508
518
524
516
507
507
518
526
523
513
516
525
531
526
514
515
524
530
527
520
522
531
537
529
518
519
528
529
519
508
511
523
527
518
502
501
512
520
511
495
497
507
513
506
494
496
508
514
507
497
497
507
513
507
496
497
509
515
509
496
498
508
514
507
497
499
510
517
508
497
500
510
515
509
498
502
513
516
509
499
501
511
517
508
498
502
512
517
510
499
501
511
519
511
502
502
513
518
511
499
504
515
518
511
500
503
514
518
511
501
505
515
520
512
502
504
515
520
513
502
504
515
519
512
502
506
517
521
514
504
507
517
521
512
503
506
516
520
512
503
505
517
523
515
504
506
516
519
513
501
505
517
522
515
503
506
517
524
516
503
505
517
523
516
505
508
520
522
515
508
515
527
531
522
510
515
524
528
521
511
512
524
531
525
512
512
523
528
519
509
511
518
519
514
503
506
514
521
512
502
504
515
520
513
503
505
516
519
515
510
522
548
566
572
575
590
605
599
568
530
505
490
476
462
451
461
482
495
495
492
497
512
518
509
498
503
513
517
509
499
503
519
525
517
506
509
521
525
516
506
509
521
524
516
506
510
524
525
521
514
518
528
531
522
513
517
526
530
523
517
523
534
536
527
518
521
532
531
520
508
512
524
527
519
504
505
516
520
511
498
499
510
514
504
494
498
509
512
505
496
500
511
514
506
496
499
511
513
505
495
501
511
514
506
496
499
511
514
506
497
500
511
515
507
498
502
514
517
509
498
502
513
517
509
499
502
514
518
508
499
503
514
517
509
500
504
516
516
510
502
505
515
518
511
502
508
517
520
511
501
506
517
520
510
502
505
517
519
511
502
507
518
520
513
504
508
518
520
511
501
506
517
521
511
502
507
519
521
512
503
507
522
519
510
501
505
516
519
511
503
509
518
520
512
503
507
518
521
513
504
506
518
521
513
504
509
520
522
515
506
514
527
530
520
510
515
527
529
518
510
514
525
528
523
513
515
525
527
518
508
512
520
518
508
499
505
518
522
511
501
507
519
520
510
502
505
517
520
513
507
519
541
559
567
571
587
607
605
577
541
515
501
485
463
450
460
482
492
492
490
498
518
517
508
498
503
514
517
508
499
504
518
523
515
507
511
521
522
514
507
511
523
525
515
506
510
522
523
518
512
518
528
529
519
511
515
526
529
520
516
523
534
535
526
515
520
532
529
516
507
513
525
526
517
506
509
518
519
510
500
500
509
511
504
498
502
512
512
503
495
501
512
515
507
498
503
514
515
507
497
501
513
517
508
499
504
514
515
507
499
504
517
516
506
498
503
515
516
507
499
504
515
516
507
498
502
513
515
506
499
503
515
515
505
498
504
517
519
510
500
505
517
517
508
499
505
518
519
508
501
506
518
518
508
500
506
517
517
509
501
506
518
517
509
502
508
518
519
510
502
508
519
520
509
503
507
519
518
508
500
506
517
517
509
500
506
519
520
510
501
507
518
519
508
500
506
517
518
509
502
508
521
521
511
502
508
519
519
509
503
514
528
528
517
509
514
526
525
516
509
515
526
526
520
514
517
526
524
515
508
514
524
519
508
501
507
519
520
509
503
510
519
518
508
500
507
520
520
511
507
517
538
551
556
563
583
604
607
584
552
529
511
488
463
451
458
478
487
486
486
498
512
515
507
497
504
515
515
505
498
504
516
522
513
507
512
523
523
513
506
513
525
523
513
506
512
523
522
514
512
521
530
528
519
511
517
527
527
518
515
523
535
533
522
515
521
532
531
517
506
511
524
525
515
508
510
517
518
508
500
502
510
509
501
494
499
513
511
502
496
502
513
512
503
496
504
513
512
502
494
501
514
513
505
499
504
515
515
506
499
506
517
516
508
499
506
519
518
506
499
505
516
516
504
498
504
515
514
506
500
506
518
515
502
498
506
518
517
507
501
508
520
518
508
502
508
520
518
507
503
508
519
518
508
502
508
519
520
511
503
509
518
518
509
503
510
520
520
508
501
508
520
518
508
502
508
520
518
508
502
510
520
518
510
503
510
519
519
509
503
509
520
519
508
503
509
520
518
509
504
510
520
518
509
502
509
521
519
509
499
512
527
528
517
511
518
529
527
517
512
518
530
526
518
515
520
528
525
516
511
517
526
521
508
501
509
520
519
507
502
509
521
519
508
503
509
520
518
508
503
515
534
546
550
559
578
602
608
589
563
543
524
496
466
451
457
476
482
481
484
496
512
513
505
500
507
517
515
505
499
504
516
518
511
507
513
523
522
511
506
512
522
520
511
507
513
524
523
513
510
519
531
529
517
512
518
528
529
515
511
522
536
534
523
517
524
534
531
517
508
514
524
523
513
507
511
518
514
505
502
505
512
508
498
494
502
515
509
500
495
503
514
512
500
495
503
513
512
501
496
504
515
512
500
497
505
517
513
501
496
503
515
513
502
497
506
515
512
502
498
505
516
514
503
500
505
516
514
503
498
505
516
515
505
499
507
518
516
505
500
510
518
516
505
499
507
519
518
506
501
508
519
516
505
501
509
519
517
505
501
511
520
517
507
503
510
519
517
507
502
509
520
519
508
504
513
522
519
509
505
512
523
520
509
504
511
522
520
508
504
513
523
520
508
503
511
522
519
508
504
511
522
519
508
503
513
523
520
508
504
511
526
527
517
513
519
529
525
514
510
518
529
526
517
515
523
529
523
512
510
518
527
523
506
500
508
519
515
504
500
509
521
518
507
503
511
521
517
506
502
515
530
539
543
553
575
599
604
591
573
555
536
504
471
455
458
471
476
477
482
497
511
511
503
500
508
517
515
503
499
507
516
515
508
508
515
525
521
510
505
514
524
521
511
506
514
522
519
508
507
518
531
527
516
512
518
527
525
515
512
524
536
532
522
516
524
534
532
519
510
516
526
524
512
509
515
521
516
505
503
511
517
509
498
496
504
513
510
499
496
506
515
511
500
498
504
514
511
500
499
505
515
510
500
497
505
515
511
501
497
505
516
512
501
497
505
515
512
500
497
506
516
512
501
498
507
517
513
501
498
506
516
513
502
499
508
515
513
502
499
508
517
512
502
501
509
518
515
504
500
508
519
516
506
501
509
518
514
503
501
510
519
516
504
501
510
520
516
505
502
511
520
516
505
502
509
519
516
505
504
512
520
516
506
504
512
521
517
506
503
512
522
518
506
503
511
521
518
508
505
514
522
517
507
504
512
522
518
507
505
514
526
524
513
509
518
528
524
513
510
519
528
524
511
512
526
531
523
510
509
518
527
522
507
503
510
521
517
505
504
513
521
516
507
504
513
522
517
505
503
515
529
535
535
548
571
594
602
594
581
567
550
515
479
461
462
470
472
471
479
497
511
509
499
499
509
518
513
501
501
511
519
514
507
507
516
523
518
508
506
515
522
519
508
505
513
522
520
508
506
518
529
525
514
512
520
531
527
516
514
524
536
533
522
520
528
536
531
519
513
518
526
523
514
512
519
525
516
503
502
512
517
508
498
495
505
514
509
498
497
506
515
510
498
496
506
515
511
498
496
505
515
510
499
497
506
514
510
499
499
508
515
511
500
499
508
517
512
501
499
508
516
512
500
500
510
519
513
503
500
509
519
514
502
501
510
520
516
504
501
510
519
513
501
498
508
519
514
502
501
509
518
513
502
502
511
519
514
502
502
511
520
515
504
505
512
521
516
504
504
513
522
516
506
504
513
522
516
505
504
513
520
517
505
504
513
521
515
504
504
513
523
517
506
505
513
522
516
504
503
513
522
517
505
504
513
522
518
506
506
514
523
522
513
513
521
529
524
514
512
521
528
523
513
513
527
533
524
511
510
521
529
521
505
501
509
519
513
504
505
514
521
515
504
503
514
521
515
502
502
513
522
526
527
543
566
587
594
592
588
580
561
526
488
466
465
468
467
465
475
492
506
506
496
499
509
518
513
501
501
510
519
511
502
508
520
525
518
507
507
518
524
518
507
506
515
523
519
508
510
521
531
526
515
515
524
532
527
516
514
524
534
531
520
520
529
535
530
518
515
520
526
521
510
509
519
522
514
502
503
514
518
510
496
496
508
514
508
496
496
508
515
508
497
497
508
514
508
497
498
508
516
510
499
498
508
516
509
497
498
509
517
511
500
502
511
518
512
498
499
510
519
511
500
500
510
518
512
500
501
512
519
513
501
501
511
518
512
500
502
511
519
513
502
502
513
519
512
502
503
514
521
514
502
502
512
520
514
502
502
511
519
514
503
504
513
521
514
503
502
512
519
513
502
503
515
520
513
501
503
513
521
515
503
506
516
523
516
504
505
515
524
517
505
504
515
522
520
504
504
515
523
518
505
505
515
521
514
504
505
515
523
519
511
513
522
527
521
510
511
522
527
522
511
512
525
534
524
510
511
521
527
520
508
504
512
518
512
503
504
515
520
514
503
505
515
521
515
503
503
514
524
522
521
535
560
581
587
587
590
588
572
537
496
473
469
468
463
461
472
491
504
504
495
501
511
518
510
499
499
509
516
510
502
507
520
526
518
506
507
518
524
518
505
507
517
523
516
506
507
518
530
526
515
515
526
531
524
512
513
524
533
530
520
521
531
536
529
518
519
524
527
520
510
511
522
528
516
503
503
514
519
509
496
497
509
515
508
496
499
509
514
507
496
498
509
517
508
498
500
510
516
508
497
499
510
515
509
498
499
509
515
509
498
501
512
518
511
500
502
512
518
511
501
502
512
517
510
499
502
513
519
513
500
503
514
520
512
501
503
515
521
514
502
504
515
521
514
504
506
517
521
513
503
504
516
521
514
504
505
514
519
512
502
507
513
519
513
503
504
515
521
515
504
505
515
521
515
503
505
515
520
514
503
505
516
522
514
503
506
517
522
515
504
506
518
522
515
504
505
515
521
514
502
506
516
523
515
504
505
516
521
516
511
515
525
528
520
510
512
523
527
519
507
509
522
532
524
509
509
520
526
518
508
508
516
519
512
503
505
516
520
512
501
504
516
520
513
503
507
517
524
521
518
533
558
576
582
585
594
599
583
548
508
484
476
471
462
457
468
489
502
501
495
500
513
519
510
499
502
514
519
510
499
505
520
525
517
506
509
520
524
516
505
509
519
523
516
506
508
518
526
522
513
515
526
530
522
512
515
527
532
528
519
521
531
536
527
516
519
527
527
518
507
510
521
525
516
502
503
514
519
509
495
497
508
513
505
494
498
508
512
504
493
497
509
515
508
497
499
510
514
506
496
499
511
515
509
497
501
512
515
506
496
499
512
517
508
497
501
513
517
509
497
502
514
518
511
500
503
513
516
509
500
503
512
516
509
499
501
512
516
509
499
503
516
517
510
500
502
513
517
511
500
504
516
520
512
502
506
518
523
513
503
505
516
520
513
503
506
518
519
512
502
506
517
520
513
502
506
517
520
513
504
508
516
519
511
502
505
518
522
515
504
507
517
522
514
504
508
519
522
513
503
508
519
523
513
503
508
519
522
514
508
515
527
529
520
510
514
526
529
521
512
515
524
531
524
510
511
522
526
519
511
511
517
519
512
503
507
518
521
513
503
508
518
521
512
502
506
517
521
517
513
528
554
572
576
579
593
606
593
558
518
494
483
473
460
453
466
487
499
497
492
496
513
518
510
500
502
512
515
508
499
505
520
525
517
506
509
520
524
516
505
509
520
525
515
506
509
519
522
519
513
518
528
529
520
510
516
528
530
525
519
525
535
536
527
517
520
531
529
520
511
515
526
528
517
504
506
517
520
510
496
498
509
512
506
497
500
511
513
504
495
499
511
514
506
496
497
511
512
503
496
501
512
514
506
496
501
512
515
507
498
502
513
515
507
498
501
512
515
507
497
502
514
516
508
498
503
515
519
509
500
504
515
518
509
500
505
517
518
510
500
504
517
519
511
501
504
516
518
509
500
506
516
519
510
499
503
516
519
510
501
505
517
519
510
500
507
517
520
511
502
507
516
519
510
503
507
517
519
510
502
507
517
519
510
502
508
521
521
511
503
508
519
521
511
503
508
519
521
512
503
507
517
519
511
503
507
519
521
512
506
514
528
528
519
510
515
526
527
518
510
515
525
529
523
512
514
524
526
517
509
514
521
518
509
502
507
519
519
509
500
506
517
519
511
501
507
518
517
511
509
522
546
562
568
573
591
607
600
570
531
507
494
478
460
451
461
483
495
491
489
497
512
517
508
499
504
516
516
507
498
504
520
525
517
507
512
523
523
514
505
511
522
523
514
505
510
522
524
518
513
518
527
528
520
515
517
527
528
521
516
523
534
535
524
515
521
531
529
516
507
513
525
526
516
505
507
518
519
510
498
499
509
510
502
494
500
513
513
503
496
500
512
513
502
494
502
513
514
506
496
502
514
514
504
497
501
514
515
505
497
502
513
513
504
497
503
514
514
505
497
503
515
515
506
498
505
516
517
507
499
506
517
518
508
502
507
518
517
508
500
506
517
518
508
499
504
515
517
508
500
506
517
517
507
499
505
517
517
508
500
506
519
519
509
500
505
517
517
508
502
509
519
519
511
503
508
519
520
511
503
508
520
521
511
504
509
520
520
511
502
508
520
520
510
506
509
520
521
511
503
509
521
520
510
504
510
521
521
512
506
517
529
529
519
510
516
527
527
517
510
516
527
528
523
516
517
527
526
517
509
514
522
518
509
502
509
519
519
509
502
507
519
519
510
502
508
519
520
511
509
521
544
557
562
569
588
609
604
577
543
520
503
482
461
450
461
482
490
488
489
498
512
514
504
496
503
515
516
506
498
505
519
522
513
505
510
522
524
513
505
512
523
521
511
505
512
523
523
515
513
523
531
529
518
510
518
529
529
518
515
523
534
533
522
517
523
534
531
517
507
514
526
526
519
505
507
517
517
507
499
502
511
511
500
495
502
514
512
502
495
501
514
512
502
496
502
514
514
504
496
503
513
512
503
497
503
514
514
503
498
504
515
513
503
497
504
515
512
503
498
505
516
515
505
499
506
518
517
508
501
507
518
516
507
501
506
518
516
508
501
511
519
518
508
502
508
517
517
508
502
509
518
516
507
502
509
520
518
507
501
508
518
518
508
501
508
519
518
508
502
507
518
518
508
503
509
519
517
509
504
510
522
519
509
504
510
522
519
509
503
511
522
520
505
503
511
521
519
508
504
511
521
519
509
504
511
521
519
509
503
513
529
528
518
510
515
525
525
514
510
517
527
525
517
515
519
527
520
513
508
514
524
518
505
501
510
521
518
506
502
510
520
518
506
502
508
519
518
508
506
518
538
549
555
563
583
606
607
584
555
533
516
490
463
451
458
477
486
485
487
500
514
513
504
500
507
517
514
504
498
505
517
519
513
509
514
523
521
511
507
514
525
524
512
506
513
523
520
511
510
519
530
528
517
511
519
528
526
515
514
524
535
531
519
515
522
533
530
515
507
514
525
523
512
507
510
518
515
505
500
502
510
506
497
495
502
513
510
498
494
503
513
511
500
496
503
513
511
500
496
503
515
513
502
497
504
515
512
502
498
505
516
512
501
497
505
517
513
502
497
506
516
514
503
498
504
514
512
502
499
507
516
513
502
498
503
515
511
501
497
506
519
515
504
500
507
517
514
503
500
508
518
516
505
501
509
520
516
504
501
510
521
517
505
500
509
520
517
507
503
511
521
517
504
501
509
519
517
507
504
511
520
516
507
503
511
521
517
506
502
510
520
517
507
504
512
521
518
507
504
512
522
517
506
503
512
521
517
507
503
514
528
526
515
510
518
528
525
513
511
519
529
525
515
517
523
529
523
511
509
517
526
519
505
502
511
521
518
507
504
512
520
515
505
503
512
523
518
506
505
517
534
542
546
557
579
603
607
590
566
547
526
496
464
452
458
473
479
478
484
499
511
509
501
499
508
515
512
500
499
508
518
517
509
507
516
524
519
510
507
516
526
520
508
506
516
525
521
509
510
523
531
526
515
512
521
531
526
514
512
525
537
533
521
518
526
535
531
517
509
516
527
523
512
509
514
519
514
502
500
507
513
508
497
496
504
514
509
498
496
505
514
509
499
497
507
516
511
500
498
508
517
512
500
499
508
517
513
501
500
509
517
512
502
500
508
517
513
503
502
511
519
514
502
500
510
519
513
501
500
510
519
512
501
500
509
519
514
502
500
510
519
515
503
501
510
519
513
502
501
510
518
513
502
500
510
519
514
504
502
511
520
514
502
501
511
521
516
504
502
511
519
514
503
503
512
522
517
506
504
514
522
517
505
503
513
521
517
506
505
514
523
518
506
506
513
522
517
505
505
514
522
516
505
505
515
523
516
504
504
513
527
525
514
512
520
529
524
511
510
520
530
523
512
514
525
530
522
510
510
521
528
519
503
502
512
521
515
503
503
512
519
514
504
504
513
520
515
505
504
517
530
535
538
552
574
596
603
592
576
560
541
504
471
457
462
474
476
474
481
497
511
508
501
501
510
517
512
501
503
511
518
514
506
508
517
524
518
506
506
516
524
518
507
505
516
526
519
507
507
521
531
526
513
513
523
530
524
512
511
524
535
530
518
517
527
534
529
516
512
519
526
520
509
511
519
522
514
503
505
513
515
507
496
496
507
514
509
499
499
509
516
509
496
497
508
516
511
499
499
509
516
509
498
499
509
517
510
500
500
510
518
512
500
500
511
518
511
499
500
510
519
514
503
504
512
519
512
503
503
513
519
513
503
503
513
520
513
502
503
513
520
513
502
502
513
520
514
504
504
514
522
515
502
504
515
522
515
503
502
512
519
515
504
504
513
521
516
504
506
515
522
514
503
504
515
523
515
504
504
515
520
515
505
507
516
521
516
503
503
515
521
515
502
503
512
519
513
502
503
513
521
515
504
504
515
521
515
504
504
514
524
522
513
513
522
529
522
512
512
521
527
520
511
515
530
533
523
509
510
521
527
520
504
502
512
517
511
500
503
514
521
515
504
506
516
522
515
504
504
516
524
526
529
546
572
592
597
590
584
572
551
514
478
462
464
469
470
466
478
498
512
507
497
501
511
517
510
499
501
511
519
510
503
507
519
524
517
506
508
520
522
517
506
507
518
524
516
504
507
521
530
524
512
512
523
529
522
515
515
527
536
530
519
520
531
536
529
517
515
522
526
517
508
511
521
525
512
500
504
515
517
506
494
497
508
515
508
497
500
509
514
507
497
502
511
517
509
497
500
510
514
508
499
501
511
516
509
499
501
512
518
511
501
503
513
519
511
499
501
511
519
511
501
503
512
517
511
501
503
515
518
510
500
502
513
518
510
499
503
513
519
511
499
501
514
519
512
503
505
517
520
512
502
505
516
521
515
504
507
516
520
513
504
507
519
523
514
503
506
518
522
514
505
508
519
523
514
503
505
516
521
513
502
507
516
521
513
503
506
517
521
516
507
507
517
522
514
504
507
517
522
515
504
508
518
521
514
505
508
517
524
519
512
515
526
529
521
511
513
526
528
520
509
513
529
533
521
508
513
523
528
519
505
504
515
520
514
503
506
515
519
511
502
506
517
521
515
503
506
518
525
524
525
544
569
587
590
588
590
586
564
525
486
467
469
467
463
462
473
494
504
502
495
503
513
517
509
497
500
512
516
508
500
507
520
525
516
505
509
520
524
516
508
512
523
526
518
507
510
523
531
523
512
514
526
529
520
511
514
527
533
528
518
521
532
536
528
517
519
525
526
518
509
512
523
524
512
502
503
516
518
504
493
497
510
515
507
494
497
508
513
505
495
499
509
511
504
495
499
510
514
504
495
500
514
515
507
498
501
513
515
507
499
506
516
517
508
498
502
513
515
507
500
503
515
517
509
499
503
515
519
511
499
502
513
516
508
499
503
514
518
508
498
504
516
518
510
501
505
514
517
509
500
504
516
519
510
500
504
515
517
509
500
505
517
520
510
502
504
516
519
510
500
505
517
520
514
502
505
517
519
510
501
507
519
523
512
503
507
520
523
514
504
509
522
521
512
502
507
518
519
511
503
508
518
520
512
504
508
519
522
517
510
516
527
528
519
511
515
526
527
519
510
516
530
534
523
511
513
525
530
519
508
509
517
519
511
502
507
519
520
512
502
506
517
519
511
504
509
518
522
517
518
536
562
579
583
587
594
595
575
537
497
478
474
469
462
459
474
493
502
499
494
503
516
519
508
498
503
514
516
507
499
508
524
525
514
505
510
522
522
514
506
511
522
524
515
505
510
522
528
521
512
517
527
527
519
511
516
527
530
526
518
522
532
533
524
515
519
527
527
516
508
513
524
525
512
501
504
518
518
506
494
498
510
513
504
494
501
511
513
504
496
500
512
514
504
498
500
513
513
504
497
503
513
514
504
495
501
513
515
506
498
503
515
517
505
497
503
516
517
508
499
503
514
517
508
499
504
516
517
508
501
507
518
518
508
500
505
517
518
509
502
505
517
518
509
501
507
518
518
510
500
506
517
519
510
502
507
518
520
509
501
506
518
518
509
501
507
516
518
508
500
506
519
520
510
502
508
518
520
509
500
505
518
519
511
504
507
518
519
510
503
510
521
520
511
502
507
518
519
509
501
508
520
522
510
504
509
519
520
514
510
518
530
527
516
510
516
527
527
516
507
514
525
530
520
510
513
523
524
515
510
510
517
516
507
501
507
519
517
508
501
507
518
518
509
501
506
519
522
516
514
532
559
574
577
583
597
602
585
547
510
490
482
471
458
455
472
492
500
497
495
502
517
517
506
498
503
515
517
508
500
509
524
525
516
507
513
523
523
513
506
512
524
524
513
506
513
525
527
520
513
519
532
529
519
511
516
527
528
524
519
526
534
533
523
516
523
532
527
515
508
515
526
525
512
501
506
518
518
508
495
499
510
511
501
495
502
513
512
501
494
502
514
513
504
498
505
516
514
505
498
504
515
515
505
498
504
515
515
505
497
503
515
513
504
497
504
516
516
505
499
506
518
516
506
500
505
516
516
506
499
504
515
514
503
498
505
516
515
505
498
505
516
515
504
499
506
517
516
506
499
504
517
516
506
499
506
518
517
507
500
508
519
518
508
501
508
520
518
508
503
510
520
519
508
501
507
518
520
509
503
508
520
519
509
502
508
520
519
509
503
511
522
520
509
502
510
520
518
507
502
508
521
519
508
504
508
520
519
510
508
518
529
527
516
511
518
528
527
516
510
516
526
528
520
511
514
524
522
512
508
513
520
515
505
502
509
520
517
506
501
508
518
516
506
502
508
519
517
510
510
528
553
566
569
578
597
611
594
560
522
502
491
474
458
454
469
491
496
492
491
501
517
515
504
498
506
516
514
504
500
508
523
523
512
505
512
524
521
512
506
513
525
521
510
506
512
523
521
516
513
520
531
528
517
512
520
530
527
519
519
526
535
532
521
516
523
533
526
513
509
516
528
524
513
504
509
520
518
508
499
504
513
511
500
495
503
514
511
502
496
504
515
513
502
497
505
516
513
504
498
504
515
511
502
498
506
516
514
501
497
505
516
514
503
498
505
514
513
503
499
507
517
514
503
500
506
518
515
503
499
506
517
514
504
500
507
518
515
504
499
508
519
516
506
500
508
518
515
505
500
508
517
516
506
502
509
519
515
506
503
511
520
516
505
502
510
520
517
506
503
511
521
517
506
502
510
520
517
506
504
510
519
516
505
500
510
521
516
504
502
511
520
516
506
503
509
520
517
506
504
511
520
516
505
502
511
520
518
507
505
517
529
526
514
510
517
527
524
512
509
517
528
526
517
512
517
528
523
515
508
516
522
516
504
502
510
519
514
503
501
510
521
520
507
503
512
522
517
507
509
525
550
562
565
574
594
610
600
566
535
514
497
475
455
450
466
487
492
487
490
501
514
514
504
500
508
517
513
504
499
507
521
520
510
508
515
524
520
511
509
518
526
520
509
508
515
524
520
513
514
524
532
528
517
514
522
531
527
518
519
527
537
531
521
520
527
535
528
514
510
518
527
522
510
506
511
521
516
505
500
505
513
510
498
497
506
515
509
499
496
505
516
510
499
496
505
514
511
499
496
508
515
511
499
497
506
516
512
501
500
507
515
512
500
498
507
517
513
504
500
508
516
512
502
500
508
517
516
503
500
510
518
513
503
501
509
520
513
503
502
511
521
516
504
501
510
519
514
503
502
512
521
514
501
500
510
520
516
503
501
510
519
514
504
502
512
521
515
502
501
511
520
514
503
503
512
521
516
505
504
513
522
516
504
503
512
521
516
505
503
512
520
515
504
504
512
520
515
504
504
513
522
517
505
504
513
521
516
506
506
519
530
525
512
511
521
530
524
513
512
521
528
524
518
518
521
525
520
510
510
519
524
514
502
502
512
520
514
502
502
511
520
515
503
504
513
521
515
504
508
522
542
551
556
567
590
607
602
575
549
528
507
480
455
449
463
480
484
481
487
502
512
511
500
500
510
517
512
501
501
511
522
519
509
510
518
523
517
507
508
517
524
518
508
507
516
523
517
510
513
524
531
524
511
510
520
529
524
513
518
528
536
530
519
518
528
536
528
512
510
520
527
522
509
507
512
518
512
503
502
507
511
506
496
496
507
514
507
497
497
507
514
508
498
498
508
514
507
496
498
508
515
510
499
499
509
515
508
496
498
508
516
508
498
498
507
516
511
499
500
508
516
511
500
502
511
518
512
501
501
511
518
511
500
501
512
519
512
501
501
512
520
514
502
503
513
520
514
502
501
513
520
512
502
503
513
520
513
503
504
515
521
514
501
503
514
522
516
503
504
515
521
514
503
504
513
519
512
502
504
514
520
513
501
504
513
520
513
504
505
515
521
514
505
507
515
521
514
503
505
515
521
514
503
505
515
521
515
505
507
520
528
523
512
512
522
528
522
512
513
523
529
523
515
519
527
529
522
510
512
522
528
517
503
504
514
519
512
504
507
517
522
514
503
505
515
522
515
504
509
523
537
543
547
564
588
604
602
580
561
542
519
487
459
456
465
477
480
477
486
503
512
508
500
502
512
517
511
500
503
513
519
514
507
510
520
523
516
507
510
520
524
518
507
509
520
524
517
508
514
528
532
523
513
515
525
530
522
512
516
531
537
528
517
519
529
534
526
511
510
521
525
518
508
510
517
519
512
502
505
511
511
502
494
497
508
512
506
495
497
507
511
505
495
497
508
513
506
496
498
508
514
507
498
500
509
512
507
498
500
511
515
507
500
502
513
516
508
497
501
513
516
508
498
502
513
517
509
500
503
513
517
509
499
504
515
518
510
499
502
512
519
511
500
504
514
518
511
501
504
515
518
511
502
505
516
519
512
504
505
517
520
512
502
505
516
519
511
501
505
516
520
513
502
506
517
520
513
503
507
517
521
512
503
507
520
520
512
503
507
518
521
514
504
508
519
523
515
504
508
519
522
513
505
509
519
521
513
504
508
520
527
522
512
515
526
527
518
510
514
525
528
520
511
518
528
527
517
507
512
524
526
515
499
503
515
519
510
501
506
517
520
512
502
506
517
519
511
504
508
523
535
537
542
560
584
600
600
586
572
557
529
494
463
456
464
472
473
474
486
505
511
505
498
504
516
516
507
498
503
514
517
511
505
509
520
523
513
504
508
520
523
515
506
509
520
522
514
505
512
528
530
522
512
516
526
527
518
509
515
530
536
526
516
520
530
533
526
514
516
524
525
517
508
512
521
520
510
502
508
516
514
502
494
499
511
513
503
492
498
510
512
503
495
501
512
514
504
497
503
514
514
504
495
500
512
512
505
497
501
511
513
506
498
503
514
515
506
498
504
515
517
508
500
506
517
518
507
499
504
516
518
508
500
504
516
519
510
501
506
517
519
508
501
507
518
518
508
500
506
517
520
509
501
506
519
519
509
501
506
520
520
511
503
508
523
518
508
501
508
518
519
510
502
508
519
520
510
502
507
519
520
511
503
509
519
520
512
504
510
521
521
510
502
508
519
520
512
504
510
520
521
510
502
507
520
521
511
502
508
520
524
517
510
516
525
526
518
510
515
526
526
517
510
519
532
530
518
510
516
526
526
516
504
508
518
519
509
502
509
519
520
509
503
509
520
519
509
502
508
521
527
528
534
556
580
594
596
591
584
572
541
502
471
461
467
469
468
472
486
504
509
502
498
505
517
516
506
498
504
515
515
508
505
512
523
522
513
506
511
521
522
513
507
512
520
521
512
506
512
527
529
520
512
520
528
528
519
512
518
531
534
526
520
523
534
532
521
513
515
524
524
514
509
515
525
519
505
499
505
517
512
500
492
498
510
509
500
493
500
512
510
500
493
499
511
512
503
497
504
513
512
502
496
502
513
512
501
496
502
514
513
502
496
503
514
513
504
497
503
514
512
503
497
504
517
516
504
498
504
514
513
504
498
504
516
514
505
498
504
515
518
507
500
506
515
514
505
500
507
518
517
507
500
505
516
516
507
501
508
520
518
508
501
508
519
518
507
502
508
520
520
508
502
508
518
519
509
503
509
520
519
509
502
509
521
519
509
502
509
520
519
509
502
509
523
519
508
502
509
520
518
509
504
511
522
520
509
503
510
521
521
515
512
519
528
528
515
510
518
528
524
513
508
517
532
528
514
507
515
526
524
512
504
508
516
514
504
499
507
518
516
506
502
509
520
518
507
502
509
521
523
520
527
549
574
587
590
592
593
582
552
509
479
468
470
465
461
466
482
500
504
497
496
506
517
514
502
497
504
517
514
503
503
514
526
522
510
506
514
524
521
510
504
512
524
521
508
504
511
526
527
518
512
517
529
528
515
510
518
530
532
524
520
525
536
530
520
517
521
526
522
513
510
520
527
521
505
500
508
520
514
499
496
503
514
512
500
496
504
516
513
500
497
505
515
511
500
498
505
516
513
504
499
506
516
512
502
498
507
520
515
504
500
508
518
514
503
500
508
517
514
504
500
508
519
515
505
500
508
518
515
504
499
508
518
514
504
500
508
517
513
501
499
508
519
516
505
501
509
519
515
505
502
510
520
516
506
503
511
523
520
508
503
510
519
516
506
504
511
520
515
502
504
510
521
517
505
502
510
520
516
504
503
511
521
517
507
503
512
522
520
507
504
512
522
518
508
504
512
521
518
508
504
513
524
520
507
504
514
523
519
512
512
521
531
525
515
512
520
529
524
513
511
520
533
529
513
508
516
527
523
512
507
511
520
516
504
502
509
519
515
505
504
512
521
516
504
502
511
521
520
514
523
544
569
579
581
588
596
591
562
522
490
478
474
465
459
461
480
499
502
496
495
507
517
512
499
498
506
516
512
502
502
514
526
520
508
504
513
524
518
507
505
514
523
520
509
507
516
525
524
514
512
520
530
526
515
512
521
529
528
520
519
527
535
531
518
519
524
529
523
511
510
518
527
520
505
502
510
519
514
498
493
502
514
508
497
495
505
514
510
498
496
504
513
510
498
496
506
516
511
500
498
507
514
510
500
499
507
515
509
498
498
507
516
511
500
498
508
516
511
501
500
511
517
512
500
499
509
520
514
504
503
511
519
514
502
501
510
517
513
500
500
509
518
513
502
500
510
518
513
502
501
510
519
513
501
501
511
519
514
502
502
512
520
516
503
502
511
519
514
503
502
512
520
515
505
504
512
519
517
504
505
514
522
516
503
504
513
522
517
505
504
513
521
516
505
505
515
523
517
504
504
513
521
515
504
503
515
524
518
507
511
521
529
523
512
511
519
528
521
511
510
517
527
526
512
508
520
528
523
510
510
515
520
514
504
506
515
522
515
502
503
514
521
516
504
505
514
522
519
512
519
542
566
576
577
588
602
602
573
533
503
488
480
465
453
459
479
496
498
493
495
508
517
512
500
500
510
519
513
502
504
515
526
520
509
508
517
524
518
508
507
517
526
518
505
506
515
523
520
513
514
523
531
524
514
515
524
529
525
518
520
531
538
531
519
518
528
531
521
509
509
520
528
521
506
504
513
520
514
499
496
505
514
508
496
497
507
513
507
496
499
509
515
510
499
499
510
517
511
498
499
510
516
511
500
501
510
516
509
499
500
510
517
510
500
501
510
517
512
501
502
512
518
511
501
502
512
519
512
502
503
513
519
512
500
503
513
519
512
502
503
513
520
513
503
504
514
520
513
502
503
513
520
514
503
503
512
520
513
502
504
514
520
513
502
504
514
522
515
503
504
513
520
514
504
504
514
521
514
502
504
513
519
512
502
504
515
521
513
503
505
516
520
514
503
504
514
520
514
503
505
513
519
512
502
504
514
521
515
504
510
524
530
521
511
513
523
528
520
510
512
522
529
526
515
514
520
524
520
509
510
517
519
511
502
505
515
520
512
503
504
515
520
513
502
504
516
520
513
507
516
537
558
565
568
584
604
606
581
544
517
499
483
465
450
456
475
490
491
488
495
508
516
510
499
501
511
516
509
499
500
514
524
518
506
507
517
523
517
507
509
520
524
516
505
507
518
523
517
511
516
525
530
522
511
513
524
530
522
513
520
531
534
527
516
518
529
532
520
507
510
521
527
518
505
504
513
520
512
499
496
507
513
505
495
499
510
514
506
496
498
509
514
508
497
500
509
515
508
497
499
510
514
508
496
500
510
515
508
497
500
511
516
508
498
502
513
517
510
499
501
513
518
508
498
501
513
518
510
499
502
513
518
512
501
504
513
516
509
499
504
514
518
510
501
504
515
519
511
502
505
519
519
511
501
505
515
519
512
502
505
516
520
511
502
505
517
520
512
501
504
517
521
514
504
506
514
519
512
502
505
515
520
512
503
506
517
520
511
502
505
517
520
512
504
507
518
521
514
504
507
517
519
512
503
508
518
521
512
502
510
525
528
521
513
514
524
528
519
510
513
524
527
523
516
515
522
525
518
508
511
521
521
511
502
505
516
519
512
504
506
518
522
514
504
509
517
519
512
507
515
535
552
559
562
579
602
608
589
556
530
512
491
468
451
455
474
487
488
488
500
510
516
511
501
504
513
516
508
498
502
514
523
516
508
511
522
524
515
505
511
522
526
516
506
510
521
523
515
511
519
529
528
521
512
517
528
530
520
513
522
536
538
528
518
521
531
534
521
509
513
524
526
518
507
508
516
519
511
500
503
511
513
504
496
500
510
512
504
495
500
513
515
506
497
501
512
514
506
497
501
513
515
508
498
502
514
517
509
500
504
515
517
508
498
504
514
516
508
498
502
513
515
507
498
502
513
515
508
501
504
514
516
508
498
503
515
516
507
498
503
515
518
510
500
505
517
516
509
500
504
516
519
509
500
505
516
518
510
501
505
517
519
510
502
507
518
520
511
504
506
517
517
509
500
506
518
522
510
502
506
518
520
511
502
506
519
520
511
501
507
519
521
512
503
507
520
520
511
501
506
518
520
512
503
508
519
521
511
502
508
524
528
520
510
515
525
527
518
509
514
525
526
520
514
519
526
525
515
507
512
525
524
509
499
505
518
520
510
501
507
520
519
511
503
507
518
519
510
502
511
529
543
549
556
576
600
608
594
568
544
526
500
471
453
456
471
482
482
482
494
508
513
506
498
503
514
516
507
499
505
516
520
514
507
512
524
523
513
506
511
521
522
512
504
510
523
525
513
507
517
529
528
518
511
517
529
529
519
512
521
535
536
524
517
523
533
533
520
509
513
524
524
514
506
510
517
517
509
500
504
511
510
500
493
500
512
513
504
495
504
513
512
502
494
499
513
513
503
496
502
515
515
504
497
503
514
513
504
496
502
513
513
503
497
503
514
514
504
496
503
514
515
506
497
503
514
514
506
499
505
516
516
507
499
504
515
515
506
499
505
517
517
506
500
506
518
518
507
500
507
518
517
508
500
506
518
517
507
500
506
518
516
507
500
506
517
516
508
502
507
520
519
508
503
509
519
519
508
502
506
519
517
507
502
509
519
518
508
504
509
519
517
508
501
509
520
519
510
503
509
520
519
507
502
508
520
520
510
503
509
526
528
519
511
516
525
525
515
508
515
527
526
515
513
520
529
525
514
508
515
526
522
508
500
505
517
517
508
501
507
519
518
508
502
508
520
519
509
503
513
528
537
542
551
572
596
605
595
575
557
540
510
476
456
457
470
478
474
478
492
509
511
504
499
505
515
514
504
498
504
517
518
510
506
512
523
520
511
507
513
523
521
511
504
511
523
522
512
507
517
530
529
519
512
519
530
529
519
512
520
538
537
526
518
524
534
533
521
511
514
525
525
515
508
514
520
517
507
501
508
515
510
502
498
502
513
511
501
495
502
512
511
502
497
504
515
512
501
496
504
514
514
504
497
504
516
515
503
497
504
515
513
502
497
505
516
515
504
498
507
518
516
506
499
506
517
514
504
498
505
516
515
504
498
507
519
516
506
500
507
517
514
503
499
507
520
516
505
500
506
516
516
505
500
508
518
516
506
501
507
519
517
506
500
509
520
517
505
501
509
520
518
506
502
509
519
517
506
501
509
520
524
506
501
509
520
518
508
504
511
522
519
508
503
511
522
519
509
503
510
519
518
508
504
510
521
518
508
504
510
524
526
517
510
519
527
525
513
510
517
528
526
515
512
523
531
528
512
508
516
526
523
509
501
508
520
518
507
502
510
521
518
508
503
510
521
518
507
503
511
525
531
535
546
568
591
600
596
584
571
554
520
484
458
458
468
471
471
476
492
509
509
502
500
508
517
513
502
499
505
517
515
508
507
515
524
521
510
506
516
524
521
509
505
512
524
521
509
504
515
529
528
517
511
517
527
525
516
512
521
536
535
524
520
526
535
532
520
513
517
525
522
512
508
516
522
515
503
500
508
515
509
498
496
500
510
508
497
495
503
513
510
499
496
504
514
511
499
495
503
514
512
501
498
506
516
514
502
498
504
515
512
502
498
506
516
513
502
498
506
516
513
502
499
508
517
513
502
498
505
518
516
503
500
508
519
516
505
501
509
518
513
503
500
508
517
514
504
501
509
518
515
505
502
509
518
516
504
501
510
521
517
506
504
511
522
518
507
504
511
521
517
506
504
512
521
517
505
503
510
523
519
508
505
513
522
518
507
504
512
522
518
506
504
511
522
519
506
502
510
520
516
506
502
510
520
516
505
502
512
524
521
514
510
519
528
523
511
508
516
529
525
513
511
523
533
525
511
508
517
527
523
509
502
508
518
516
506
505
512
522
520
507
504
512
521
517
506
505
514
528
529
529
541
564
588
595
595
590
582
566
531
493
467
464
469
468
466
477
491
508
507
498
498
507
516
511
500
499
508
518
514
504
505
516
526
521
509
505
513
522
520
508
506
513
524
519
507
505
515
528
527
516
512
519
528
525
513
511
520
532
531
521
518
526
535
529
518
516
520
526
520
510
509
518
526
516
504
501
511
518
509
495
494
503
514
508
497
494
503
512
507
496
494
503
513
509
499
497
506
516
511
499
496
504
513
509
499
497
506
515
511
501
498
506
515
512
501
499
508
518
514
500
496
507
516
513
503
502
508
516
512
501
499
508
519
515
504
502
511
520
514
503
501
510
518
513
503
502
511
521
516
504
502
510
519
515
504
504
511
519
515
504
503
511
519
515
504
503
511
520
516
504
504
512
521
514
504
502
511
519
515
504
503
513
524
516
505
503
512
520
515
504
503
513
522
516
503
502
511
521
516
505
504
513
520
515
504
504
514
523
521
512
511
520
529
524
511
509
520
528
522
512
511
524
534
524
512
510
520
528
524
511
504
511
519
516
505
503
512
521
517
506
504
513
518
517
505
504
514
525
525
522
533
557
580
589
592
592
592
577
542
501
476
470
471
466
460
468
488
505
506
497
499
511
520
513
500
500
509
517
512
502
505
516
525
519
507
506
516
524
519
507
506
515
523
518
507
506
516
527
524
514
512
520
528
523
511
512
521
532
530
520
519
526
534
529
518
517
521
528
520
510
509
519
527
517
502
501
511
519
510
496
495
505
515
509
498
496
506
514
508
498
497
507
515
510
500
498
508
516
509
497
497
507
516
510
499
499
507
515
509
498
497
508
516
510
498
498
508
516
511
499
499
510
517
511
499
499
508
516
512
500
500
510
518
512
501
502
511
519
512
500
501
512
520
514
502
503
513
519
514
504
503
513
520
514
503
503
513
524
516
504
503
514
521
514
504
504
514
521
515
503
503
513
520
514
503
504
514
521
515
504
505
514
521
515
504
504
514
520
516
504
504
513
520
514
503
504
514
522
515
504
505
515
524
517
505
504
515
522
518
511
513
524
528
522
510
510
519
528
521
511
512
524
534
527
511
509
519
528
523
512
507
512
520
515
504
505
514
521
516
504
505
514
520
514
503
504
514
522
520
515
529
554
576
583
584
593
600
588
556
514
487
475
473
464
458
468
488
502
503
495
499
511
518
512
500
501
511
519
512
500
504
519
526
520
507
508
518
524
517
506
507
518
524
519
506
506
517
527
524
515
516
526
532
526
514
514
523
531
529
521
520
530
536
530
518
518
525
528
520
510
511
521
527
519
503
503
514
521
512
497
496
506
515
510
503
500
510
516
510
499
499
510
516
510
498
499
508
516
510
499
498
508
516
510
499
500
509
515
510
499
500
510
518
512
500
501
511
518
512
500
501
510
517
509
501
501
509
516
510
500
502
512
517
511
500
502
511
518
511
500
502
512
519
512
501
502
512
518
513
502
504
512
519
513
501
502
512
519
513
501
502
512
519
513
502
504
514
520
512
501
505
515
519
513
502
503
513
516
512
502
503
513
520
513
502
504
514
520
514
503
504
515
520
514
504
504
515
522
515
503
508
515
521
513
504
504
515
521
514
506
512
523
529
520
509
511
522
527
520
509
510
522
532
526
512
510
519
526
520
510
509
514
517
512
502
504
513
520
514
503
504
514
520
513
503
504
514
520
518
512
524
548
568
575
578
592
603
595
564
525
499
486
477
463
455
464
484
498
499
495
500
513
519
511
500
502
511
516
510
499
502
516
524
518
508
508
518
523
516
507
509
520
523
516
505
509
520
526
523
513
515
524
529
524
513
512
525
529
525
519
522
532
536
527
516
519
528
528
518
507
510
520
526
518
503
503
513
519
511
496
496
507
512
506
496
497
508
513
507
496
499
510
515
507
495
499
511
517
510
499
500
511
516
508
498
501
512
516
509
499
502
512
516
510
499
502
512
519
512
502
504
513
519
512
502
504
514
518
510
501
504
514
518
511
499
503
512
518
511
500
502
513
518
511
501
504
515
519
511
499
504
515
520
512
503
505
516
521
511
501
505
516
521
513
502
505
515
521
514
503
504
515
519
513
503
506
516
520
512
504
506
516
521
513
502
505
516
521
512
502
506
518
521
514
504
507
518
522
513
503
507
517
521
513
503
507
518
522
515
507
514
526
530
522
511
514
524
528
519
507
511
524
530
526
513
512
521
526
519
509
511
518
519
510
501
505
515
519
512
503
506
517
520
513
503
507
517
520
516
510
521
544
562
568
571
587
604
601
574
536
510
494
479
462
450
460
481
495
493
488
495
511
518
509
499
502
513
517
508
499
502
516
523
516
505
509
520
523
516
506
511
521
523
515
506
511
520
526
520
514
518
529
531
522
511
514
527
530
524
518
523
533
536
528
516
519
531
532
520
509
513
524
528
520
506
505
515
519
511
498
498
507
510
503
495
499
510
513
504
495
499
510
513
505
495
499
511
514
507
497
500
511
514
504
495
500
512
518
508
496
500
512
515
508
498
502
512
516
508
499
501
513
518
510
499
504
515
520
509
500
505
516
518
510
501
505
516
518
510
500
505
517
519
510
500
504
516
518
510
500
503
516
519
510
500
505
517
520
512
503
508
517
519
510
502
506
518
519
510
501
506
517
520
510
502
506
518
520
511
502
507
520
521
512
503
508
519
521
513
504
508
520
521
512
504
509
521
523
514
505
510
521
523
512
503
507
519
522
512
505
514
527
529
520
510
514
525
528
520
511
515
525
528
524
516
517
528
527
518
510
514
523
520
510
502
508
520
521
511
503
506
517
520
511
504
507
519
520
513
508
516
541
557
564
567
585
606
608
582
547
522
506
488
464
450
457
480
490
490
488
497
511
516
508
499
502
514
517
510
500
505
518
523
516
507
511
522
524
515
505
510
522
524
516
506
511
522
524
514
511
519
530
530
520
510
516
528
529
520
514
521
533
534
526
516
520
530
531
518
509
513
525
526
516
506
506
515
516
508
500
502
510
510
502
496
500
512
513
504
495
501
513
513
502
495
500
512
513
505
497
504
515
516
508
499
504
515
514
504
496
502
514
515
506
498
505
514
516
507
499
504
515
515
506
499
504
516
518
507
498
504
516
517
508
500
505
516
517
508
501
506
518
518
510
501
505
517
516
508
500
506
518
518
509
502
507
517
518
510
502
508
519
519
509
501
508
519
519
510
501
506
518
518
507
500
507
519
519
511
503
508
518
518
508
502
508
519
520
511
503
508
520
520
510
502
509
520
520
511
503
509
520
521
510
502
508
519
520
512
503
512
526
529
518
509
514
526
527
517
510
515
527
527
520
515
518
527
525
516
509
514
525
521
509
501
508
519
520
509
502
509
520
519
509
501
508
520
518
508
504
515
535
548
553
560
578
604
608
588
557
536
518
494
468
453
458
475
484
484
485
497
511
515
508
501
506
515
514
503
497
504
516
520
513
507
512
523
523
514
507
513
524
524
513
505
511
522
522
512
509
520
529
529
518
511
517
527
526
516
510
522
535
533
522
514
521
532
532
520
507
513
524
525
516
509
511
519
516
508
501
503
510
508
501
494
502
512
512
502
495
502
513
512
502
494
500
512
512
502
495
502
513
513
503
496
503
515
514
503
496
503
514
514
504
498
504
516
514
503
497
503
514
514
505
499
505
516
515
506
499
504
516
516
507
500
507
517
517
507
499
504
517
517
507
500
507
518
518
507
499
507
519
517
507
500
507
518
517
504
499
506
517
516
506
499
506
518
520
508
501
508
519
517
508
502
509
520
519
509
504
510
521
520
510
504
510
520
519
509
503
510
521
519
508
504
510
519
518
508
503
508
519
517
508
503
509
520
519
508
502
509
524
526
516
509
516
525
524
514
508
515
528
525
517
515
521
528
525
514
508
516
527
523
507
500
508
520
519
508
504
509
519
519
509
503
510
521
518
508
502
513
531
541
546
555
575
600
608
593
569
549
531
502
470
453
456
472
480
479
481
495
510
511
503
499
508
519
517
505
499
506
517
517
511
508
513
523
521
510
505
513
525
523
512
506
513
525
523
513
511
521
532
529
519
513
519
530
528
517
513
525
540
536
524
517
524
533
