498
500
510
517
510
499
501
513
518
510
498
501
512
519
512
501
503
512
516
510
500
503
514
520
513
502
504
514
519
514
502
504
514
520
511
500
502
513
519
513
502
504
514
519
514
504
505
515
520
513
502
504
516
520
513
503
505
516
521
513
502
504
515
520
513
503
504
514
518
513
507
512
523
527
520
510
513
524
528
520
509
511
522
530
525
511
510
522
527
519
508
509
515
517
510
501
505
516
519
511
501
505
517
520
512
502
505
517
520
515
510
524
549
568
574
577
591
602
593
561
521
496
484
474
460
450
461
481
494
494
490
496
511
516
508
497
500
512
516
508
497
501
516
522
514
505
508
518
521
513
503
506
517
521
513
503
506
518
523
520
513
516
527
528
520
511
516
527
529
525
519
522
532
534
525
515
518
529
528
518
508
512
525
527
516
501
502
514
518
510
496
497
508
511
503
494
497
508
510
503
494
499
511
513
504
495
499
511
515
506
496
500
511
515
507
498
504
515
516
508
499
502
514
516
509
499
503
515
517
508
499
503
516
517
508
500
504
516
518
509
500
504
516
517
509
499
504
516
520
510
499
503
515
518
510
500
504
516
518
511
502
505
515
517
509
500
505
517
520
512
503
507
519
521
513
504
508
519
521
512
504
507
519
520
512
503
508
520
522
513
503
508
519
522
513
505
509
520
522
513
504
508
519
522
515
506
509
519
521
510
502
507
519
521
512
504
508
519
520
511
506
514
527
528
519
510
515
526
527
518
510
515
526
528
523
514
516
525
526
517
510
514
523
519
510
502
508
519
519
511
502
507
519
519
511
503
508
519
520
513
509
522
546
564
566
573
590
608
601
571
535
510
496
479
460
449
460
483
494
492
489
498
512
515
506
497
502
513
514
505
497
503
519
521
513
506
511
523
523
514
505
509
521
521
512
503
509
522
524
518
513
518
529
529
519
510
516
528
530
519
515
523
534
533
524
516
521
532
527
515
506
511
525
525
514
503
505
516
517
508
498
499
510
510
500
493
498
510
510
501
494
499
510
510
502
495
502
513
512
502
496
501
513
512
504
498
503
513
512
503
495
501
514
513
503
496
503
514
514
504
497
502
513
513
503
498
503
515
513
504
498
505
516
515
505
499
505
516
515
505
498
504
516
515
505
499
505
516
515
506
500
505
517
516
505
500
506
517
517
507
501
507
519
517
507
500
505
517
517
507
502
508
519
519
508
502
508
518
515
505
501
508
519
517
507
500
507
519
517
507
501
508
520
518
507
500
507
519
519
508
501
508
519
518
508
502
508
519
519
507
504
514
528
526
515
508
514
525
523
513
509
517
528
527
521
515
519
527
524
513
508
513
521
517
505
499
507
519
517
507
501
508
519
518
507
502
509
519
517
508
507
519
542
555
558
566
586
608
604
576
545
523
506
482
459
450
461
480
487
484
487
498
512
513
505
499
504
514
511
502
498
506
520
522
513
508
514
524
521
510
506
513
524
520
509
505
513
524
521
512
512
521
531
529
518
512
519
528
526
517
517
527
537
534
522
517
525
536
531
516
509
516
526
524
513
507
508
517
515
504
499
502
511
508
498
495
502
513
512
501
497
505
515
511
499
496
504
514
511
499
495
504
515
512
500
498
506
516
514
504
499
506
515
512
501
497
504
515
512
502
497
504
514
511
501
496
506
516
513
503
499
506
516
513
502
499
507
517
513
503
500
508
518
514
503
501
509
519
515
505
501
510
518
514
503
501
509
519
516
505
501
509
520
516
504
500
509
519
516
504
501
508
518
516
505
502
510
519
516
506
503
511
520
517
505
502
510
520
516
505
502
510
520
517
505
502
511
520
516
505
504
513
522
517
505
503
511
521
517
506
503
513
525
522
511
509
517
526
522
511
509
517
525
521
514
515
520
527
521
511
510
518
525
516
502
501
511
520
517
505
502
510
519
514
504
503
512
522
517
505
505
518
537
546
549
560
583
605
605
583
558
538
518
490
462
452
461
478
483
480
486
501
513
511
501
500
509
517
512
500
499
509
518
518
509
510
519
526
520
508
507
515
524
520
509
508
515
523
520
509
510
522
531
526
514
512
520
529
525
513
515
527
537
532
520
519
528
535
528
512
508
517
526
521
510
507
514
519
513
502
501
506
511
505
494
496
504
513
509
498
497
506
513
507
497
500
506
514
509
499
499
508
516
509
497
498
507
515
511
500
500
509
516
511
500
500
510
517
512
500
500
509
517
512
499
499
511
518
511
498
499
510
518
512
500
500
510
517
510
499
500
510
517
513
501
501
510
518
512
500
501
511
519
512
501
502
511
518
513
502
503
512
520
513
501
501
511
518
513
503
503
512
519
513
501
504
513
520
514
502
502
513
521
515
505
505
515
522
515
504
505
514
521
514
503
504
515
522
516
504
504
515
522
515
504
505
514
520
515
504
505
516
527
522
510
510
521
528
522
509
510
520
526
520
510
516
526
528
520
508
510
522
528
517
502
503
514
520
515
503
503
514
522
515
505
505
515
519
512
500
504
519
532
537
541
558
582
601
602
586
569
553
528
496
465
456
464
475
478
475
483
500
511
506
498
502
512
516
509
498
500
510
515
511
505
508
520
525
518
506
507
517
522
516
505
508
518
522
516
506
511
525
531
524
512
514
525
530
523
512
514
529
537
531
520
521
531
536
528
514
513
522
526
518
509
511
519
519
509
504
503
513
513
504
493
496
508
512
504
494
497
508
513
506
496
498
509
513
506
496
502
510
513
506
497
499
510
515
507
497
500
512
516
508
496
499
512
516
509
499
502
512
516
509
498
502
514
518
510
500
504
515
518
511
501
503
515
519
511
500
504
516
520
511
501
504
513
517
510
499
503
515
519
511
501
504
516
520
512
501
504
515
519
511
502
505
516
519
510
501
505
517
520
513
503
507
518
520
512
502
505
517
519
512
504
509
519
520
512
503
507
519
522
514
503
508
520
521
512
502
506
518
520
512
502
506
519
521
512
502
507
521
527
521
512
516
527
528
518
509
513
525
526
518
509
517
530
530
517
507
512
523
524
513
500
503
514
517
509
500
506
518
520
511
501
504
517
519
511
502
506
521
528
531
536
555
580
595
597
590
580
569
541
502
470
460
466
470
469
470
484
504
509
501
496
503
515
515
505
496
503
516
517
510
506
511
523
524
514
506
512
522
525
515
507
511
522
523
515
506
512
528
529
521
511
517
528
530
520
511
515
528
536
527
519
523
534
534
525
515
515
524
526
516
508
514
524
519
507
499
504
515
512
501
494
499
510
512
502
494
499
510
511
502
495
500
511
513
505
497
501
513
514
504
497
502
512
512
504
496
501
513
513
504
496
502
514
515
507
498
503
515
516
507
499
503
514
514
505
498
505
517
516
506
498
505
520
516
506
500
505
516
516
507
498
504
515
517
507
500
505
516
517
507
499
504
516
516
507
501
506
517
517
507
500
505
518
517
509
502
507
520
518
507
498
506
518
517
507
500
507
518
517
505
499
506
518
518
507
501
509
518
516
507
501
507
519
518
508
502
507
519
518
508
502
509
520
518
507
500
507
519
521
514
509
515
526
525
515
509
513
525
525
515
509
517
531
526
512
506
513
525
524
512
502
505
516
515
505
501
508
520
519
508
502
507
518
516
505
500
508
520
524
522
530
551
576
588
589
590
590
579
549
509
478
466
468
465
461
466
482
501
507
499
497
506
518
517
506
500
505
516
515
505
504
512
525
524
512
507
515
525
523
512
507
513
525
522
511
506
513
527
528
518
514
520
530
527
517
512
518
531
532
523
519
525
535
532
522
519
520
528
524
514
510
518
527
521
506
500
508
520
515
499
494
502
514
512
502
496
503
513
511
501
496
504
516
513
501
496
503
515
513
501
498
505
515
513
502
499
506
517
514
503
499
505
515
512
502
498
506
516
513
501
498
505
516
513
503
499
506
518
516
505
500
507
517
515
504
501
508
517
514
504
500
506
516
514
503
501
509
518
515
505
501
508
518
516
505
500
509
520
517
506
502
510
520
517
506
502
509
520
516
505
502
511
522
518
505
502
509
520
518
507
505
513
523
518
506
503
512
521
518
506
504
512
521
517
506
504
512
522
518
507
504
512
521
517
507
504
513
524
520
512
511
520
529
525
513
511
519
529
526
515
511
519
533
528
513
509
517
527
524
512
508
511
519
515
505
504
512
520
516
504
502
511
520
516
504
502
508
519
520
515
524
547
571
580
583
590
596
587
557
516
487
474
472
463
458
461
480
497
499
492
494
505
515
511
499
497
506
515
512
501
501
513
525
521
511
505
514
522
519
508
507
515
524
518
507
503
515
526
526
515
513
521
530
525
514
513
522
531
530
520
518
527
535
530
518
518
524
527
520
509
509
518
527
520
504
501
511
520
513
498
496
505
514
510
497
495
505
513
509
498
497
506
514
510
498
497
507
516
511
500
499
508
516
509
498
497
506
515
510
498
500
509
517
510
498
498
507
516
511
499
501
511
520
511
499
498
508
517
512
500
499
509
518
514
501
501
510
517
513
501
501
510
518
513
501
500
510
518
513
502
502
510
519
513
502
502
511
519
514
503
503
512
519
515
503
503
513
520
515
503
503
513
521
514
502
504
515
522
514
502
504
514
522
516
505
503
514
521
516
505
506
514
521
515
505
506
516
522
516
505
507
517
525
518
507
507
516
523
516
507
512
523
530
523
511
511
521
528
522
511
511
521
532
527
512
510
519
527
522
511
511
516
520
514
503
505
515
520
514
503
504
514
521
516
504
505
515
521
517
511
521
546
566
574
576
589
601
596
567
528
500
486
477
464
452
460
480
496
497
491
496
510
518
512
500
500
511
516
511
499
501
516
524
518
506
506
517
524
517
510
507
517
523
517
505
506
515
522
519
512
511
523
529
523
512
514
524
529
524
517
520
531
534
527
517
519
528
528
519
507
510
521
526
518
504
504
516
521
513
498
496
506
512
505
493
496
508
513
506
495
498
509
513
504
494
497
508
514
507
496
499
509
513
506
496
499
510
514
507
498
501
511
516
508
497
500
511
515
509
498
500
511
516
510
500
504
514
516
508
498
502
513
518
510
499
502
516
520
513
502
504
515
518
511
500
503
515
519
512
500
502
513
519
512
502
508
516
520
512
501
504
515
518
511
501
505
517
520
512
501
504
516
521
513
503
505
516
519
512
502
505
517
521
512
502
505
517
521
513
504
508
518
522
513
502
505
518
521
513
503
506
512
521
513
503
506
517
520
512
504
512
527
529
520
509
512
524
526
518
509
512
524
528
525
513
514
524
525
518
508
512
521
522
512
503
507
519
521
512
502
506
518
520
511
502
507
519
521
513
508
520
545
561
566
571
588
608
605
578
542
514
498
480
462
449
458
480
492
490
487
496
512
517
510
499
503
513
516
507
498
503
518
524
516
507
511
522
524
516
506
510
522
525
514
505
509
520
522
517
512
517
527
527
518
511
518
529
529
520
515
523
534
534
525
514
520
531
530
517
506
512
523
525
518
506
507
516
516
509
499
500
510
512
503
495
501
513
512
503
496
501
512
513
504
496
502
513
514
504
497
502
514
516
507
499
503
515
514
504
496
502
514
515
505
497
502
514
515
507
497
501
513
514
506
497
504
515
515
505
497
502
514
513
505
498
504
515
516
510
499
506
517
516
506
498
503
515
516
507
499
505
517
517
508
500
506
517
518
508
501
507
518
517
508
501
507
519
520
510
501
507
518
518
508
502
507
519
518
509
501
507
519
518
508
501
508
519
519
507
502
508
519
519
509
502
508
519
519
509
502
508
520
520
510
503
509
520
518
510
504
514
527
526
516
509
516
527
526
515
508
514
526
526
520
514
516
525
524
514
509
514
523
517
505
499
507
518
517
507
501
507
518
517
506
501
508
521
519
508
505
517
539
552
556
565
584
606
605
579
548
526
509
485
461
451
459
478
487
486
488
498
511
512
504
499
505
516
514
504
499
506
519
521
512
507
512
523
520
511
506
512
523
522
511
505
512
524
521
511
511
520
531
529
518
513
518
529
526
515
515
525
536
533
521
515
523
534
532
516
508
514
525
522
512
506
509
518
515
503
497
502
511
509
499
494
501
512
509
497
493
500
511
509
498
495
501
513
510
499
496
503
513
510
499
495
503
514
512
501
497
504
515
512
501
498
505
516
513
502
498
505
517
513
501
497
504
515
512
502
499
507
518
517
504
499
507
518
515
503
500
507
518
515
505
502
509
519
516
504
501
509
519
515
504
500
507
519
516
504
500
509
520
517
505
502
509
518
514
503
500
509
521
517
505
500
508
518
514
504
502
511
521
518
506
503
511
520
517
507
504
512
522
517
506
504
512
523
519
507
503
512
522
518
507
505
512
523
519
507
505
516
529
525
513
510
517
527
524
512
509
518
528
525
515
515
521
528
522
511
510
517
526
518
503
500
511
521
516
503
500
510
520
516
504
502
511
520
515
504
505
519
538
547
549
562
584
605
606
587
564
545
523
494
464
453
460
476
480
477
484
500
513
512
502
501
509
518
513
502
501
510
519
518
508
507
515
524
519
509
507
515
522
519
507
507
514
523
517
507
511
522
529
524
513
513
522
531
527
515
514
525
536
531
519
519
527
534
529
515
511
518
527
521
509
508
514
519
513
502
501
507
512
505
495
495
505
514
509
497
496
506
514
509
498
498
506
515
510
498
498
507
516
511
499
499
509
518
512
500
501
511
518
511
498
498
509
517
512
500
499
508
516
512
501
501
510
517
512
499
500
509
518
513
500
499
509
518
513
501
502
511
518
513
502
502
511
519
512
500
502
512
519
513
501
502
512
519
513
502
502
511
519
514
502
503
514
522
515
503
503
512
519
514
504
505
514
520
515
503
504
515
522
516
504
504
514
521
515
504
504
513
520
514
504
506
516
521
514
503
504
515
521
515
503
505
516
522
515
503
504
515
526
523
511
512
522
527
521
510
512
522
528
522
511
516
526
529
519
508
510
521
527
517
502
502
513
519
514
504
504
515
521
514
503
505
516
521
514
503
505
519
532
537
541
557
581
600
602
588
574
559
535
499
465
456
464
475
476
474
484
502
512
508
499
500
510
516
509
498
502
511
517
512
504
508
520
525
518
507
510
521
525
518
506
508
519
524
516
504
509
524
530
524
511
513
525
530
523
513
514
529
537
530
517
518
530
535
528
515
511
522
527
519
509
510
517
519
510
500
504
513
513
503
492
495
508
513
505
494
497
511
512
504
494
496
508
513
507
496
499
510
513
505
495
499
511
516
508
498
499
511
515
507
497
501
512
516
509
498
501
511
517
509
499
501
511
515
508
496
500
512
517
509
498
501
512
516
510
499
501
513
517
510
500
503
514
518
511
501
504
515
518
511
502
504
514
517
509
500
504
516
519
511
502
505
517
520
512
503
505
517
520
512
501
505
516
519
511
501
504
516
520
512
502
505
517
520
512
503
506
517
519
511
500
504
516
521
513
502
504
516
520
513
503
507
518
521
512
501
506
519
525
520
511
514
526
527
518
508
512
524
527
519
510
517
530
530
519
508
512
524
525
516
502
505
516
519
511
502
506
517
520
512
502
506
518
520
511
501
505
521
527
528
532
552
577
592
595
589
583
571
544
505
472
462
466
469
466
466
480
500
509
504
498
504
514
515
506
498
503
516
519
510
505
511
522
522
513
504
510
521
524
515
505
509
520
523
515
505
509
525
531
525
513
517
528
528
520
510
515
529
534
526
517
521
533
534
525
516
516
525
526
517
508
513
524
521
509
500
505
515
513
502
494
499
512
513
504
495
501
513
513
504
495
500
510
513
504
495
500
511
511
502
496
502
513
513
504
496
502
511
513
504
498
505
515
515
506
498
504
516
516
505
497
503
516
517
506
497
502
515
516
507
499
504
517
517
508
500
506
517
517
507
500
505
517
518
508
500
506
518
517
508
501
506
518
518
509
501
507
519
519
508
500
505
517
519
509
502
507
518
519
510
502
507
518
518
508
500
507
519
520
511
503
508
518
519
510
503
508
519
518
509
502
508
520
520
510
502
508
520
519
508
501
508
519
519
510
502
508
521
522
516
512
517
527
526
516
510
516
526
525
515
509
517
532
529
516
509
515
527
526
515
505
507
519
518
508
503
509
520
520
510
502
508
519
519
509
501
507
521
524
521
528
548
574
586
589
590
591
583
555
514
481
468
470
466
461
464
479
499
505
498
495
504
518
517
506
500
506
517
516
505
503
514
525
523
511
505
511
522
521
511
506
512
523
521
510
505
512
527
529
520
513
518
529
528
517
511
518
531
532
523
517
523
535
533
522
517
520
528
524
514
509
516
526
521
507
501
508
519
514
499
493
499
513
513
501
495
502
513
511
501
495
503
514
512
500
495
503
515
513
502
497
504
515
513
502
496
502
514
512
502
499
505
516
512
501
496
505
515
514
502
499
507
519
515
503
498
504
515
513
503
499
506
517
514
503
500
507
519
516
505
499
507
519
516
504
499
507
518
516
507
503
509
520
515
505
501
508
518
515
503
499
507
519
515
504
501
508
519
517
506
502
507
518
515
504
500
508
519
516
504
500
509
520
517
505
501
509
520
516
505
502
509
520
516
505
502
511
522
518
505
502
510
521
517
506
502
510
521
519
510
509
517
528
524
513
509
517
528
526
513
510
518
532
529
514
509
516
526
524
513
507
510
519
515
504
500
509
521
518
507
503
509
518
514
503
502
510
520
520
515
524
546
570
580
582
589
597
593
563
522
491
477
473
464
454
460
479
497
500
495
496
506
518
514
501
498
507
516
513
502
501
514
525
520
508
506
514
524
520
508
506
514
524
520
508
507
515
525
524
515
513
520
530
526
513
511
520
528
528
518
516
525
535
531
520
518
525
530
523
510
509
518
527
521
506
502
511
520
514
499
496
503
513
510
498
496
506
515
509
497
496
505
514
508
498
497
506
515
509
498
497
507
516
511
498
497
506
515
510
499
498
506
516
512
500
498
507
517
512
499
498
507
516
512
499
499
509
518
513
501
499
509
519
513
500
500
509
517
514
503
502
510
518
513
502
502
511
518
512
501
502
512
520
516
504
502
511
520
516
503
502
510
518
513
503
502
512
520
516
504
504
513
520
514
503
502
512
520
516
504
502
511
520
515
503
501
511
519
514
503
502
512
520
516
504
504
514
521
515
504
504
514
522
517
505
504
513
521
516
508
512
523
530
523
511
510
520
528
523
512
512
522
532
530
516
514
519
527
523
512
510
515
520
513
501
502
512
520
515
503
503
512
519
514
504
501
513
520
517
510
520
542
564
572
574
587
603
601
573
534
504
488
479
466
453
460
479
495
497
491
496
510
518
510
497
497
508
516
511
500
501
515
525
520
508
507
517
523
516
505
506
516
523
517
505
507
517
523
521
512
513
523
529
524
511
512
522
529
524
516
519
529
534
527
516
517
526
529
519
506
508
519
526
519
505
503
512
518
513
497
495
505
513
507
496
496
506
513
507
495
496
507
514
507
495
498
510
515
508
496
498
508
515
508
497
499
510
517
510
498
500
510
516
509
498
501
511
517
510
499
500
511
515
509
498
500
511
516
508
498
500
512
519
510
500
503
513
517
510
499
501
511
516
510
499
502
513
517
510
499
502
513
518
512
501
502
513
519
510
499
501
513
518
512
502
504
516
521
515
503
505
516
521
514
504
505
515
521
513
503
504
516
521
513
503
504
515
521
515
504
506
517
521
513
502
505
516
521
515
505
507
517
521
513
503
507
519
523
515
505
511
524
529
521
510
512
524
528
520
509
511
523
530
528
516
514
523
527
520
510
512
520
520
511
501
505
517
520
511
501
505
517
520
513
502
504
517
522
515
508
518
541
558
564
568
583
604
607
581
544
517
500
483
464
450
458
478
491
491
488
496
511
516
508
498
501
513
517
509
499
503
517
524
517
507
510
521
523
514
505
510
520
523
515
505
510
522
524
519
513
518
529
532
523
512
516
527
529
521
514
520
532
534
525
516
519
531
534
517
505
510
523
528
519
505
503
513
516
510
499
498
508
511
503
494
497
509
512
503
493
497
509
511
503
494
499
511
513
504
495
498
510
512
504
496
501
513
515
507
498
502
514
516
507
498
502
514
515
505
497
502
513
516
508
499
503
515
516
508
499
505
516
517
508
500
505
516
518
510
501
504
515
516
508
500
504
517
519
510
500
505
516
518
510
500
505
516
517
509
501
505
517
518
510
502
506
517
517
509
501
506
517
518
509
500
506
518
518
510
501
506
518
519
509
501
506
519
520
510
502
508
520
520
510
501
507
519
520
511
504
509
520
521
511
502
507
520
521
512
503
512
527
528
517
508
513
526
526
517
509
515
527
527
520
514
516
525
525
515
506
512
523
519
507
499
505
517
519
507
499
506
518
518
509
501
506
518
519
509
505
514
536
550
555
561
579
603
607
586
554
530
511
489
466
452
457
476
487
485
485
496
510
514
507
500
505
517
516
506
499
505
518
522
515
508
513
523
523
513
506
512
523
523
513
505
511
524
523
513
509
518
530
529
519
512
517
529
529
518
514
522
535
533
523
516
523
534
531
518
509
514
525
525
515
507
508
517
516
507
500
502
512
511
502
495
501
513
512
502
496
503
514
512
502
496
502
513
512
503
497
503
514
513
502
496
502
513
511
501
495
502
514
512
502
497
503
513
512
502
496
504
516
513
502
497
504
515
514
505
500
507
518
516
506
500
506
517
516
506
499
504
515
514
504
500
507
519
516
505
498
505
517
516
506
500
506
518
518
507
500
507
518
516
506
500
507
518
515
504
500
508
519
517
506
500
508
519
517
507
503
510
520
519
508
502
508
520
518
507
502
509
521
518
506
502
509
520
519
507
502
509
520
519
509
504
510
520
518
508
503
512
526
526
516
510
516
527
525
515
509
516
528
526
516
515
520
528
524
512
508
517
527
519
503
498
505
517
515
505
500
508
519
514
505
501
508
520
518
505
503
514
533
542
547
558
579
602
605
588
565
545
526
496
465
452
456
473
480
478
482
497
511
511
502
499
507
517
513
501
499
507
517
518
510
508
515
524
520
509
506
513
524
521
510
506
513
523
520
510
510
522
532
529
516
512
520
530
525
513
511
523
534
531
518
514
522
534
531
515
509
513
524
522
512
508
512
519
516
505
502
507
513
509
496
495
504
514
511
499
496
504
514
511
498
496
504
515
512
499
496
504
514
510
499
497
506
516
512
500
498
506
517
512
501
498
507
516
512
499
496
504
515
511
500
498
506
516
512
501
500
508
517
513
502
499
508
517
513
502
500
508
518
514
502
501
508
520
516
503
500
509
519
515
504
503
511
520
515
504
502
511
521
518
506
503
513
522
518
506
504
512
521
516
504
503
511
520
515
503
502
512
523
516
505
503
512
521
516
504
502
511
520
515
503
501
510
520
516
504
504
511
520
516
503
503
512
521
517
505
503
513
525
524
512
510
520
529
523
511
509
518
527
521
511
514
523
527
520
508
507
517
526
519
504
501
510
519
514
502
504
511
520
515
504
503
513
521
516
503
502
516
530
537
540
553
575
596
600
588
571
555
535
503
470
456
459
470
473
472
479
496
509
507
499
499
507
515
511
500
500
509
516
513
507
508
517
524
518
505
506
515
523
518
506
505
515
523
518
506
507
521
531
525
513
512
522
530
523
512
512
525
535
531
519
519
527
534
529
515
509
516
524
519
509
509
517
519
512
501
502
511
515
507
494
496
506
513
507
496
496
505
512
507
496
495
505
515
509
498
499
509
516
510
498
498
508
514
509
498
499
508
516
511
499
499
509
516
510
499
500
510
517
510
497
498
508
515
509
497
499
509
516
510
499
499
509
515
509
499
500
510
517
511
500
500
510
518
514
502
503
511
519
513
501
502
512
518
511
499
501
513
519
513
501
502
512
518
512
501
504
516
522
515
505
506
516
521
515
503
504
516
522
516
504
506
516
522
515
503
504
515
521
514
502
504
515
522
516
504
505
518
524
517
506
507
517
523
517
506
510
518
526
523
514
517
526
530
523
511
513
523
529
522
511
515
528
531
520
508
510
521
527
520
504
503
512
519
513
502
504
515
520
513
503
504
516
521
514
502
504
517
527
530
532
549
573
590
596
591
583
572
549
512
476
461
465
469
469
468
479
498
509
506
500
504
515
517
510
499
503
513
518
512
505
510
521
524
517
506
508
521
527
518
507
509
520
525
517
505
508
523
531
524
512
515
527
531
525
513
514
526
535
529
520
521
531
535
527
516
515
523
526
518
508
512
523
523
512
499
502
514
516
506
493
497
509
513
506
496
498
510
513
505
496
499
510
513
505
495
499
511
515
507
496
499
511
516
507
496
500
512
517
509
498
501
511
514
508
498
501
513
515
508
498
501
513
517
509
499
504
515
517
508
499
504
516
520
510
500
504
516
518
510
499
503
515
518
510
504
504
515
518
511
502
506
517
520
511
501
505
516
519
512
502
505
517
520
512
503
506
517
520
512
502
504
516
520
511
500
504
517
521
512
501
504
515
519
511
501
505
516
520
511
502
505
516
520
512
501
505
517
520
512
502
506
517
519
511
502
506
517
520
517
511
514
526
528
519
509
514
525
528
519
512
514
530
532
520
508
512
524
527
519
506
506
515
518
511
504
508
520
521
513
504
508
519
521
512
503
508
521
527
525
528
547
573
588
593
593
594
587
562
522
486
470
470
468
464
464
478
497
505
501
496
503
514
515
505
495
501
515
517
507
500
508
521
522
514
506
510
522
523
514
505
509
522
522
513
505
508
522
527
521
512
514
524
525
517
510
515
527
533
526
518
521
531
532
523
515
517
524
524
514
506
513
524
521
506
496
502
516
515
502
492
498
509
510
501
494
499
510
510
502
494
500
512
512
502
495
501
513
513
503
500
502
514
515
505
498
502
515
516
507
498
504
515
515
505
497
502
514
515
506
497
503
514
513
504
497
502
514
515
505
497
502
515
516
506
498
503
515
515
506
499
505
516
515
505
497
504
516
516
507
500
506
517
516
506
498
505
517
518
508
500
505
516
517
507
500
505
516
516
506
500
506
518
518
509
501
507
518
517
508
502
506
518
518
508
501
507
519
519
508
502
508
519
518
508
502
507
518
518
508
503
510
521
519
509
503
509
521
520
512
509
515
527
524
514
508
514
526
525
515
510
516
530
531
518
509
515
525
524
513
505
508
518
517
507
501
506
518
518
509
502
507
519
519
508
503
508
520
523
515
519
538
564
577
580
585
594
593
569
530
496
479
476
468
458
461
476
496
501
495
492
503
516
515
503
496
503
515
515
505
501
510
523
521
512
507
512
523
522
512
507
514
524
522
512
505
512
524
526
518
512
518
530
528
517
512
518
527
528
522
518
525
536
533
521
516
521
527
523
512
507
514
524
522
508
501
512
519
516
502
493
499
512
510
499
494
500
512
511
500
495
502
512
510
499
494
502
514
511
500
496
503
514
511
501
496
502
515
512
501
497
504
515
513
503
498
504
515
512
502
499
507
517
514
502
497
504
516
512
504
499
505
517
514
503
499
507
518
515
504
501
507
518
516
506
502
509
519
514
505
501
508
519
516
505
502
511
521
518
506
502
511
521
518
507
502
509
520
517
506
502
509
520
517
505
503
511
522
517
505
503
511
521
518
507
503
510
520
517
507
503
511
520
517
507
503
511
521
520
506
502
511
522
519
508
504
513
523
519
509
510
520
535
525
513
510
518
528
524
514
512
520
532
531
517
511
518
527
524
513
510
513
520
515
505
503
511
520
516
504
502
510
520
515
504
501
510
520
518
511
516
538
562
573
575
585
599
603
578
538
506
489
480
468
454
457
474
493
497
493
493
505
518
515
502
499
508
518
514
503
500
512
525
521
508
505
514
523
515
507
504
515
525
520
507
505
514
523
522
513
512
520
530
525
514
512
519
530
527
519
519
527
535
529
518
517
524
530
521
508
506
516
526
521
506
500
507
517
513
499
494
502
509
506
495
495
503
512
507
496
495
505
512
507
497
497
506
514
509
496
495
506
515
511
499
498
507
516
512
499
499
508
516
511
499
499
510
518
511
499
499
508
517
513
501
499
508
516
511
500
499
509
517
513
501
500
508
516
512
501
500
510
519
514
503
502
512
519
513
501
501
511
518
513
502
503
512
520
514
502
501
510
519
513
501
502
512
522
516
503
503
513
520
514
502
502
512
520
514
504
504
513
520
515
503
503
513
521
515
504
505
516
524
517
504
504
514
522
516
506
507
515
523
517
506
507
517
523
516
506
511
523
530
523
510
511
521
528
522
510
511
520
528
526
515
510
518
526
520
510
511
518
520
513
502
504
513
520
514
505
506
516
522
515
504
506
515
522
515
507
514
535
557
565
567
581
601
606
584
547
519
502
486
466
450
454
473
490
491
488
494
508
517
512
500
500
511
517
512
500
500
512
522
518
506
508
518
523
517
505
508
519
524
517
505
506
518
523
519
512
516
526
529
522
511
513
524
529
523
514
519
531
536
528
516
517
529
534
523
509
511
522
522
520
507
506
514
519
512
499
497
506
513
506
495
497
508
514
506
495
497
509
514
507
496
498
508
514
507
497
500
511
516
509
498
500
510
515
508
497
499
510
515
508
497
499
511
516
508
497
499
510
515
508
497
500
512
519
509
497
500
511
516
509
498
501
513
518
510
499
501
511
517
509
499
503
514
518
510
499
502
515
519
511
500
499
514
519
512
502
505
516
519
512
503
506
517
519
512
503
506
517
519
511
500
504
517
520
512
502
505
517
521
513
503
506
517
520
513
503
506
519
521
512
502
505
516
520
513
503
506
517
520
512
501
504
516
519
511
501
508
524
527
519
508
512
524
527
518
509
512
524
526
521
514
515
523
525
519
509
513
521
521
509
499
504
517
520
511
501
505
517
519
511
502
507
518
520
511
503
512
533
549
556
561
578
601
609
590
558
533
515
493
467
449
455
470
486
485
482
493
508
515
507
499
503
514
515
506
497
503
515
520
514
507
512
523
523
514
505
510
520
522
514
506
512
521
522
515
510
518
529
530
521
512
514
526
528
519
511
520
534
535
525
516
520
531
532
520
509
512
522
524
516
507
507
515
516
508
501
503
510
510
500
493
498
511
513
502
494
499
512
513
505
495
499
512
513
504
496
500
512
513
504
495
500
511
513
504
496
501
513
513
504
495
500
512
512
503
495
501
513
514
505
497
502
514
514
505
498
503
514
515
506
498
502
514
514
505
498
503
515
515
506
499
502
514
514
505
498
504
517
517
508
499
504
516
517
508
500
505
517
518
508
500
505
517
518
509
501
505
517
518
510
502
507
519
518
507
500
507
519
519
509
501
509
521
521
509
501
507
519
519
509
501
507
519
519
509
502
508
519
519
509
504
509
521
520
510
504
512
527
528
518
510
516
527
526
518
510
515
527
527
518
514
518
526
525
517
509
514
525
521
508
501
507
519
519
508
501
507
520
519
509
503
509
520
519
509
504
515
533
544
548
556
575
599
608
593
567
546
529
502
472
455
458
473
480
478
480
494
509
511
503
498
504
515
513
504
498
504
516
519
511
507
512
523
522
511
505
512
524
522
511
505
510
522
521
511
507
517
530
529
517
511
517
529
527
517
512
522
535
535
524
517
524
535
532
518
508
513
526
524
514
508
512
519
517
504
500
504
511
505
497
492
498
510
508
498
493
500
511
507
499
494
501
513
511
499
494
501
514
512
501
496
503
513
511
500
496
502
513
511
501
497
503
514
512
502
497
504
515
513
502
498
504
515
513
502
497
505
516
515
505
500
508
518
515
504
498
505
517
516
506
502
508
518
514
504
500
507
518
515
505
501
508
518
515
503
499
506
517
515
504
499
508
520
519
507
500
508
519
516
505
501
508
518
515
505
502
510
521
516
505
501
509
519
517
506
502
510
521
519
508
504
511
522
519
508
504
512
522
519
507
503
511
521
518
506
503
512
528
527
515
509
516
528
525
514
509
516
527
524
514
514
523
530
523
512
509
517
527
521
507
501
509
521
517
505
497
508
520
516
506
502
511
521
518
505
501
513
528
535
539
550
571
594
602
591
575
559
540
508
474
457
462
470
475
473
479
496
511
510
502
500
508
517
513
502
499
508
518
515
507
507
516
523
520
509
506
513
523
519
509
506
514
524
519
510
508
519
531
529
516
513
521
530
526
515
512
523
536
532
520
517
524
534
531
518
512
519
528
524
512
510
517
522
515
504
502
512
515
507
495
494
504
514
510
498
496
504
513
509
497
495
504
513
509
497
495
504
515
510
499
497
506
515
510
498
496
505
514
509
499
498
507
516
512
500
498
507
516
512
502
500
508
516
512
501
498
507
516
511
500
499
509
518
513
501
498
509
518
512
500
499
508
518
514
502
500
508
517
516
502
502
510
519
515
504
504
512
520
515
503
502
511
520
515
504
502
512
522
517
505
503
513
522
518
505
503
512
520
515
504
503
513
521
516
504
503
512
521
516
505
504
513
523
516
504
504
513
521
516
506
505
513
521
515
504
505
515
525
522
513
513
522
529
523
511
511
520
528
522
511
513
526
531
523
511
510
519
527
521
506
503
511
519
514
503
504
513
520
514
502
503
512
520
514
502
502
515
527
529
532
546
568
588
595
590
583
572
552
517
479
460
461
468
469
467
476
495
508
505
495
501
510
517
511
499
499
509
517
511
504
507
518
524
518
507
507
517
525
519
506
506
516
524
518
506
506
519
530
525
512
511
521
529
523
511
512
523
534
530
520
520
528
535
528
516
513
520
525
518
509
511
520
521
512
500
502
512
513
504
492
494
505
512
505
494
498
507
513
505
495
496
506
513
507
497
499
508
514
507
500
497
507
514
508
499
497
507
512
507
496
498
509
514
508
498
499
510
516
510
499
500
510
516
510
500
501
