352
338
335
329
345
350
337
335
332
351
344
337
333
338
354
340
336
330
345
352
339
337
331
348
339
331
328
333
349
336
332
325
340
348
334
330
323
344
342
335
331
334
351
338
337
332
348
353
339
336
332
353
348
340
337
337
355
341
337
330
340
345
321
310
293
302
290
278
283
306
348
356
366
379
381
359
345
356
351
342
334
354
346
340
334
356
342
335
332
353
338
335
336
353
337
334
340
351
338
330
339
342
333
326
344
339
332
325
343
331
328
325
347
331
333
331
353
336
333
337
353
341
335
346
354
344
337
353
350
342
336
356
347
342
337
358
343
341
340
359
344
340
342
358
343
339
346
356
342
335
350
350
341
335
353
346
341
336
356
344
340
335
357
342
340
340
358
341
337
344
355
341
333
344
349
339
332
350
345
338
332
354
344
339
334
355
341
337
337
356
340
337
341
355
340
336
343
349
338
331
348
347
338
333
352
342
337
331
354
341
338
335
356
339
337
337
354
340
334
336
350
338
330
344
342
331
324
345
339
332
326
349
339
332
325
348
337
334
332
351
337
337
341
354
339
334
345
349
338
333
348
345
337
331
347
332
315
298
307
283
278
291
337
347
362
372
387
365
354
354
358
343
334
349
349
341
333
352
345
336
329
350
337
334
331
352
337
336
336
353
337
332
336
346
334
327
339
342
332
326
341
334
329
321
344
333
329
329
352
337
325
332
355
342
338
341
358
348
344
350
354
344
337
353
349
341
335
355
347
341
335
357
344
341
339
360
343
340
341
357
342
339
346
354
341
335
349
349
339
334
353
346
339
334
355
343
338
336
357
342
339
339
358
341
338
343
354
340
336
346
350
339
334
351
346
339
331
353
343
339
334
355
340
339
337
357
341
338
339
354
340
335
343
350
339
332
347
347
338
330
350
343
338
331
352
341
337
334
355
338
336
337
354
338
335
341
351
334
327
341
343
332
326
345
340
333
324
344
337
335
330
351
337
336
338
355
340
337
342
355
341
337
345
349
338
331
346
338
321
303
310
290
277
279
322
335
354
366
391
370
359
353
365
346
338
345
353
340
335
350
350
333
329
349
342
337
331
354
340
337
333
353
337
337
336
349
333
329
336
348
335
328
342
340
330
322
340
335
329
326
349
338
331
329
352
341
340
337
358
343
343
344
358
343
339
349
355
343
337
352
351
343
335
355
346
342
334
356
344
340
338
359
344
340
341
359
342
338
344
353
341
335
349
351
341
333
353
347
340
334
355
342
338
335
357
342
339
339
357
342
339
342
353
339
334
346
349
339
330
350
346
339
331
352
343
338
333
355
342
339
337
355
342
339
341
355
341
334
342
351
339
333
348
346
338
331
351
343
337
331
353
340
337
334
354
338
336
337
354
335
330
336
347
334
329
342
343
334
327
343
339
334
327
349
337
334
334
357
341
337
337
355
340
337
340
354
339
334
343
347
327
309
312
299
281
273
309
323
344
357
388
374
364
354
366
345
341
341
357
342
338
346
353
340
330
343
344
335
328
348
341
335
330
351
339
336
332
350
333
329
330
349
334
330
335
344
329
323
335
338
328
323
344
340
333
327
347
340
339
335
354
345
344
341
360
344
340
343
357
345
339
348
353
341
335
352
349
340
334
353
346
339
335
357
343
339
337
358
343
341
341
357
341
338
345
355
342
335
349
350
340
332
351
344
338
333
355
341
340
336
357
342
339
339
357
341
337
341
353
339
333
346
351
340
331
349
346
338
331
352
341
337
333
355
341
338
336
356
339
337
340
354
338
333
343
350
339
331
347
346
339
332
352
343
338
332
354
342
337
334
355
338
332
333
350
335
330
338
346
332
327
339
339
332
326
345
339
333
329
352
341
336
333
355
341
338
337
357
340
337
341
351
333
318
317
308
286
271
296
315
333
348
382
377
368
356
370
349
343
338
357
342
334
341
356
342
332
340
347
336
330
345
344
336
329
348
340
335
330
351
334
330
328
349
335
333
333
347
329
327
333
343
329
322
340
345
335
327
344
341
337
332
353
345
343
339
360
345
343
341
360
344
341
344
358
344
340
349
354
343
337
353
350
343
336
355
345
340
336
358
344
342
340
359
343
341
341
357
343
338
345
353
342
335
350
350
341
333
353
346
340
335
356
343
340
337
356
342
340
339
357
340
338
344
356
340
334
347
350
339
332
349
345
338
332
352
341
337
333
355
341
338
336
356
339
336
340
353
337
333
344
351
339
332
347
346
338
332
350
343
337
333
353
338
332
329
350
335
332
333
349
334
330
337
343
332
327
342
341
333
327
350
345
338
331
352
340
337
334
353
340
337
339
354
336
326
319
318
291
276
287
307
320
338
374
379
371
358
370
354
344
337
358
344
341
339
358
342
338
339
351
336
331
341
347
337
329
346
343
335
329
348
336
329
325
347
334
328
329
349
330
327
329
346
330
326
333
347
336
330
342
343
337
332
351
345
342
337
358
346
342
338
360
345
344
341
360
344
341
344
355
342
337
348
352
342
335
352
349
342
333
354
344
339
335
356
341
338
337
357
343
340
341
356
340
337
346
354
340
334
350
349
340
332
352
345
339
333
355
342
338
337
358
341
338
338
356
340
336
342
352
339
334
346
348
338
333
351
345
338
332
353
343
338
334
354
340
338
337
356
340
335
338
353
338
335
344
349
337
332
348
345
337
330
350
341
334
325
350
334
333
331
350
335
333
335
347
330
330
337
346
335
328
347
348
338
330
351
343
337
332
354
342
338
334
354
337
331
322
324
298
283
281
301
309
329
365
380
373
362
372
359
346
337
355
344
340
335
357
342
340
338
353
336
334
339
349
336
331
341
347
337
329
345
342
331
322
345
337
332
325
347
333
327
324
345
330
327
330
348
336
332
339
348
337
333
348
348
340
337
356
349
342
336
358
346
343
339
360
344
341
342
359
344
341
345
357
344
337
348
352
341
335
353
348
340
334
354
345
340
335
356
341
340
337
356
342
339
341
356
341
337
346
351
340
334
351
349
342
332
353
344
336
332
354
342
339
338
356
341
338
339
355
340
336
343
352
339
333
347
348
340
332
351
345
339
332
353
341
337
333
355
339
337
338
355
338
335
340
352
339
332
343
348
337
330
348
344
336
326
347
337
333
329
349
336
332
331
351
333
331
335
350
335
331
341
351
339
331
347
347
340
331
351
343
336
330
352
340
334
324
333
305
290
281
297
296
316
349
378
373
366
372
365
349
337
353
347
341
334
355
346
340
336
353
336
335
334
355
337
336
339
351
336
331
344
349
334
327
342
341
333
325
346
337
329
322
345
332
329
326
347
335
335
337
351
335
334
345
352
339
335
353
353
343
337
356
348
341
338
359
345
342
339
359
344
342
341
358
343
339
347
357
344
337
349
350
341
335
352
346
340
333
355
343
339
336
357
343
340
338
356
342
338
342
354
341
335
346
350
339
332
349
346
338
332
353
344
339
334
355
341
339
337
358
340
337
340
355
339
335
343
351
338
331
346
347
338
330
351
343
337
331
353
342
339
335
355
341
338
337
355
339
336
342
352
339
333
345
347
337
328
344
341
333
326
347
335
332
328
349
332
329
330
351
335
332
338
354
339
334
344
350
339
331
350
346
340
332
352
343
334
325
338
312
296
282
297
288
306
334
372
371
370
373
372
354
341
352
349
340
334
353
346
341
336
355
340
336
332
355
339
336
336
353
337
333
340
351
334
325
339
341
332
325
342
337
330
321
341
331
327
323
345
334
334
333
351
335
333
341
356
341
337
350
357
344
338
353
346
343
336
357
347
342
337
359
346
343
339
360
344
340
342
357
342
339
346
354
341
335
350
349
341
334
353
346
340
333
354
342
339
335
356
342
339
338
356
341
338
343
354
339
335
346
349
338
331
349
345
338
330
351
341
337
333
354
340
337
336
355
339
336
339
355
339
335
344
350
337
331
347
347
339
331
350
344
337
332
353
339
336
334
355
339
337
338
354
340
335
341
351
337
331
342
341
333
327
346
340
333
327
349
337
329
327
351
336
332
332
353
340
337
342
353
339
334
344
349
339
331
349
345
337
327
340
318
301
286
297
282
295
317
363
365
371
373
380
356
345
350
354
340
334
350
349
341
333
353
342
335
329
351
339
334
331
354
338
334
335
352
338
330
335
345
334
327
340
342
331
322
340
335
328
322
344
334
333
331
351
336
338
336
359
341
337
346
361
345
339
350
355
344
336
354
349
342
337
357
347
342
338
360
344
340
339
359
343
340
343
359
343
338
346
352
342
336
349
348
340
333
353
345
340
333
356
343
339
336
357
341
340
340
357
342
337
343
353
340
334
348
350
340
333
351
346
340
334
355
343
338
335
355
341
339
338
356
341
338
342
354
339
334
344
349
338
331
348
346
339
332
352
343
338
332
354
339
337
334
354
339
337
339
354
339
335
340
345
332
327
342
343
334
328
347
340
332
325
348
338
334
330
350
339
339
340
355
340
337
342
354
340
334
347
348
338
329
343
329
310
289
298
282
285
304
351
359
369
372
386
360
351
349
359
342
335
347
352
343
335
350
346
334
328
349
341
335
329
351
338
334
333
353
337
333
331
347
334
330
338
345
333
325
337
336
328
321
341
334
333
329
350
335
332
332
356
341
338
339
360
347
340
345
357
343
337
349
354
343
335
353
350
343
336
357
346
341
337
358
344
341
340
359
343
341
342
355
341
336
347
352
341
333
350
347
339
332
353
344
339
335
356
343
340
336
357
341
339
341
356
340
335
344
355
341
333
348
348
338
331
352
346
339
332
353
342
338
334
356
340
339
337
355
339
336
340
352
338
332
344
347
338
330
349
345
338
331
354
344
339
333
354
340
337
335
354
339
336
339
351
334
329
340
346
334
327
343
342
333
323
345
339
334
329
351
339
338
338
357
341
337
339
355
340
337
343
352
338
332
342
337
315
295
302
287
280
290
335
348
364
370
389
366
355
347
362
342
339
343
356
342
337
347
351
337
329
346
343
334
329
350
339
334
329
352
340
337
331
347
331
330
333
348
333
329
335
339
327
321
337
337
329
326
346
338
332
327
352
342
338
335
359
346
342
343
360
343
340
346
355
343
337
351
352
342
334
353
348
341
335
355
345
341
336
359
345
341
340
358
343
339
344
356
341
338
349
353
340
333
350
348
340
334
354
346
340
335
356
343
339
338
357
340
334
341
356
340
336
345
352
339
333
349
348
338
332
352
343
338
333
353
340
336
334
356
341
339
341
356
339
336
342
352
340
332
347
348
339
331
350
345
338
332
352
341
337
333
354
340
337
336
354
334
331
337
351
335
329
340
345
335
325
341
341
334
327
347
338
337
334
355
341
336
335
357
341
340
340
364
341
336
342
345
322
305
306
295
280
281
322
341
357
364
389
371
359
348
364
346
340
338
357
342
339
343
354
339
330
343
346
337
328
346
342
335
330
350
338
333
328
347
333
331
329
348
332
330
333
344
328
324
334
340
329
324
343
341
333
326
348
342
338
332
356
347
344
341
360
343
342
343
359
344
338
347
355
343
337
350
350
341
336
354
346
341
335
356
345
341
336
357
342
340
341
358
342
338
344
354
341
336
347
351
341
336
353
348
340
334
355
345
340
335
357
342
339
337
356
341
338
342
354
341
336
345
352
339
331
348
346
338
332
352
344
338
333
353
341
339
336
358
342
338
338
355
340
336
341
351
339
332
346
348
339
331
349
343
338
331
352
341
338
333
353
335
331
332
350
336
331
337
348
336
330
338
342
335
328
346
340
337
332
354
343
337
334
355
341
338
336
356
340
338
340
351
329
311
307
302
279
273
306
329
345
357
387
376
363
350
365
347
342
337
357
344
339
339
357
341
334
339
349
335
330
344
346
335
328
346
341
336
329
346
333
331
325
348
334
333
331
347
330
325
332
344
329
326
342
346
334
327
346
345
340
333
353
347
343
339
359
345
343
343
361
345
342
344
358
342
339
347
355
344
337
351
350
338
334
353
347
341
335
356
344
341
338
358
344
342
342
357
341
338
343
354
340
334
347
349
340
333
352
345
338
332
353
343
338
335
356
341
338
337
355
339
336
340
355
339
334
346
351
338
331
348
347
338
332
351
341
336
332
353
341
337
334
354
339
337
338
353
338
334
342
350
337
331
346
346
338
331
349
342
337
332
352
338
332
329
350
330
331
333
351
336
333
334
345
335
331
342
344
334
331
350
344
336
330
352
343
338
334
355
341
338
335
352
334
320
310
312
287
276
293
321
335
350
379
381
367
352
365
353
343
334
355
344
341
338
358
342
337
336
351
337
334
341
351
336
330
344
345
336
329
348
338
331
325
347
335
331
327
347
329
326
328
346
330
327
335
350
335
330
341
347
339
333
349
347
344
339
357
347
342
338
360
344
342
341
361
345
341
343
356
342
337
348
355
342
335
350
349
342
333
352
344
339
334
356
343
340
338
359
343
340
340
356
341
338
345
356
342
336
349
352
340
333
351
345
339
333
354
342
339
334
355
341
338
338
356
340
337
341
354
340
335
347
350
339
333
350
345
337
330
351
342
338
335
354
340
337
336
356
339
337
340
354
340
335
344
350
338
334
346
347
340
331
350
343
333
326
349
337
334
331
351
337
334
333
346
332
334
340
349
337
332
347
350
340
333
351
347
340
335
354
348
340
337
355
340
330
318
320
296
282
288
314
329
349
376
388
377
363
370
362
350
342
356
351
346
343
358
351
344
341
353
344
337
342
354
345
338
347
351
342
335
348
345
335
330
344
343
334
331
347
338
327
328
344
335
330
333
350
341
334
339
349
341
337
348
351
345
340
354
352
342
340
355
351
345
342
356
349
341
344
355
348
339
345
354
345
339
347
353
344
338
350
349
341
338
352
348
339
337
352
344
338
339
352
343
336
340
351
342
336
343
350
339
333
346
347
338
334
348
345
337
334
349
343
337
336
350
342
334
339
351
343
335
342
350
340
333
344
348
339
334
346
346
337
333
348
345
336
335
350
343
335
336
350
341
334
339
348
339
332
341
347
337
330
345
346
335
327
341
340
330
328
345
340
330
330
343
333
328
335
347
337
329
340
351
341
332
343
348
338
333
347
347
337
335
350
344
330
318
321
301
281
278
299
313
331
359
382
375
363
365
363
348
338
348
348
339
334
350
347
337
333
346
340
332
334
350
340
330
336
347
336
330
340
347
332
325
338
341
331
326
341
339
326
322
338
335
324
324
343
338
330
334
346
338
334
343
352
343
342
349
354
343
336
351
351
340
336
352
348
338
339
354
347
339
341
355
347
338
343
354
344
337
346
353
342
336
348
349
340
336
351
349
339
336
351
346
336
338
352
344
335
341
353
344
334
343
352
341
334
345
349
338
334
348
347
338
335
351
346
336
335
350
343
335
337
352
342
334
341
350
341
333
344
349
338
331
346
348
337
333
349
346
335
333
350
343
335
337
350
343
335
340
351
341
334
342
350
339
327
339
344
333
327
343
342
332
329
344
336
329
333
347
339
330
337
352
344
334
342
351
341
337
344
348
338
332
347
348
333
321
325
310
288
277
293
304
320
347
379
377
367
366
369
352
339
347
352
342
335
349
349
339
335
347
343
333
333
349
342
332
334
351
341
333
338
349
337
327
335
344
335
327
339
342
329
321
337
338
328
324
341
341
332
331
346
340
334
339
352
343
331
346
357
346
339
348
353
342
336
351
351
342
338
352
349
339
338
354
347
338
340
354
346
339
343
354
344
336
345
352
342
335
348
349
339
334
350
348
339
335
351
347
337
338
353
346
336
340
354
344
337
344
352
341
334
346
352
340
333
348
348
338
333
350
346
338
336
352
344
336
339
352
344
335
342
353
342
334
344
351
341
334
347
348
336
333
348
347
336
334
350
346
335
336
350
342
334
340
351
341
331
336
344
334
327
340
344
332
328
343
339
328
327
345
340
331
332
349
344
336
338
352
343
334
341
351
340
333
344
349
336
326
329
317
295
280
288
294
306
332
370
377
371
366
372
356
342
346
354
344
338
347
350
343
336
347
344
334
330
346
344
333
330
345
341
332
334
348
340
327
331
344
335
327
335
344
333
323
334
340
329
323
338
341
333
331
346
340
334
337
353
345
337
343
358
349
341
345
355
345
338
348
354
344
337
349
352
342
337
352
350
339
336
352
348
339
339
355
346
336
341
354
343
336
345
353
343
335
347
351
341
335
350
349
339
335
351
347
337
337
352
345
336
339
352
344
335
343
351
342
336
346
350
340
333
346
348
339
334
349
347
337
336
353
345
336
338
351
343
335
340
352
341
327
343
351
339
333
346
347
337
333
349
346
337
334
349
343
334
335
351
343
335
335
347
336
329
337
346
336
329
340
343
331
327
343
343
332
328
347
346
337
336
352
345
336
337
352
342
334
340
350
340
330
332
325
302
283
287
290
297
317
358
372
371
366
375
361
345
342
354
345
336
341
353
343
335
343
347
336
329
342
346
337
332
346
343
334
332
348
343
331
328
345
338
326
333
346
337
326
331
341
331
325
335
342
334
329
342
342
334
333
350
345
337
339
356
350
340
342
357
348
339
343
355
346
338
349
355
344
337
349
352
341
335
351
349
341
335
352
348
338
340
354
347
338
342
354
344
338
345
353
342
335
347
350
341
335
349
348
340
334
350
347
338
336
351
344
336
339
352
344
336
342
352
342
335
344
350
340
334
348
349
339
334
349
346
336
335
351
345
335
337
352
343
335
339
351
341
334
343
352
342
333
346
349
338
332
346
345
337
333
348
343
335
334
345
339
330
332
345
338
328
337
346
334
326
339
345
336
329
343
347
339
335
351
348
337
336
352
345
335
337
351
343
335
335
335
312
291
289
290
290
305
345
368
370
369
379
368
352
343
357
349
338
339
354
347
338
342
352
340
331
340
350
339
331
343
347
336
330
345
344
332
326
340
338
329
328
343
338
327
328
341
332
324
330
342
334
330
340
346
335
331
347
350
339
336
353
351
341
340
356
349
340
343
356
347
338
343
356
345
337
346
353
344
337
349
352
342
337
351
350
340
337
352
347
338
339
354
346
336
342
353
344
336
344
353
343
335
345
350
340
336
349
349
338
334
350
347
338
337
352
345
337
339
352
343
335
341
352
340
332
342
349
339
333
346
347
337
333
348
346
336
334
349
344
336
336
351
343
335
338
351
341
334
341
349
339
332
343
347
338
332
347
347
336
332
344
339
331
331
346
339
331
333
347
336
325
333
346
338
329
340
346
340
334
347
347
338
333
350
347
336
335
349
345
335
333
340
319
297
290
294
285
294
328
360
366
366
380
375
355
343
354
350
338
336
352
347
339
337
353
341
331
336
349
339
331
339
348
337
330
341
345
336
328
340
340
331
327
343
339
330
327
340
333
325
328
343
334
330
337
347
336
329
343
351
341
333
350
353
344
339
353
350
341
340
356
349
340
341
354
346
337
343
355
347
338
346
353
344
336
347
352
342
336
350
348
338
335
351
347
338
337
353
345
338
339
353
344
336
345
355
343
336
345
350
339
333
348
347
338
335
351
347
338
335
350
343
335
338
352
343
336
341
351
343
334
344
351
340
334
346
349
338
333
348
347
337
336
351
345
336
337
352
345
336
339
352
342
333
341
351
339
333
345
348
338
333
345
341
331
330
345
341
332
332
347
342
329
329
347
339
331
336
348
342
335
344
350
340
333
347
348
338
333
348
345
336
332
343
328
305
295
298
283
284
311
349
361
365
377
380
361
347
354
354
341
335
350
348
338
335
352
346
333
334
348
341
332
336
350
340
333
340
350
339
330
337
342
334
328
341
341
332
328
340
335
326
326
343
335
328
335
349
339
331
339
352
343
334
346
355
346
338
351
353
343
338
354
351
341
337
354
349
339
340
355
347
339
342
355
345
338
345
354
342
335
348
351
340
333
350
347
337
334
351
345
335
334
351
342
335
337
351
340
333
339
351
338
330
342
349
337
328
346
346
335
329
348
343
333
328
349
342
334
333
353
341
332
336
353
339
330
340
350
336
329
345
348
336
326
348
343
335
328
351
342
334
330
352
339
331
335
352
337
329
337
350
337
329
341
343
329
321
341
341
330
325
345
338
330
323
345
334
330
328
349
334
335
339
352
337
333
341
349
336
330
345
345
338
330
346
331
313
294
302
282
278
293
338
349
364
373
388
365
352
351
358
342
336
347
351
341
332
350
346
335
328
348
339
335
332
354
340
336
336
353
338
335
335
346
334
330
340
345
334
327
341
336
328
322
342
335
329
329
350
338
335
334
355
344
340
341
360
348
342
348
357
344
339
353
355
343
337
355
349
342
337
357
347
341
339
358
345
343
343
360
346
341
346
358
343
337
348
351
341
336
352
349
341
336
355
346
340
336
357
344
340
338
357
344
341
344
356
341
337
346
354
341
334
349
342
340
335
353
345
338
334
355
344
339
337
356
342
338
340
355
340
338
345
353
341
334
348
349
339
333
349
345
338
335
353
342
337
334
355
341
336
336
354
340
336
340
350
333
334
339
344
335
328
346
343
335
325
343
339
335
329
350
338
337
339
357
342
337
340
354
341
335
344
351
340
333
345
340
320
301
308
291
278
282
325
340
357
367
390
370
357
349
364
346
338
343
354
342
335
348
350
338
327
346
343
336
331
351
340
334
330
351
338
336
333
348
332
329
334
346
334
329
339
340
329
323
339
336
328
325
347
339
333
329
352
343
338
337
357
346
343
343
359
344
340
348
356
343
337
352
351
341
335
352
347
341
336
356
346
341
337
356
342
339
341
357
343
340
346
356
341
336
348
352
340
334
351
348
341
334
353
343
338
334
355
341
339
337
356
341
337
340
354
340
336
344
351
340
332
347
347
338
332
349
343
337
333
353
341
336
337
355
341
336
338
353
339
335
342
352
338
332
345
339
337
331
349
343
337
332
352
342
338
335
355
340
337
338
354
335
329
335
348
335
328
339
345
333
328
341
339
333
328
348
338
335
334
354
341
336
336
353
339
336
338
350
339
336
343
346
327
308
310
301
280
275
312
329
348
360
387
374
362
351
365
347
341
340
353
343
339
345
354
341
332
342
344
334
329
347
341
334
328
349
340
335
332
347
332
330
330
348
333
330
336
344
328
322
334
339
329
324
345
341
332
327
347
342
339
334
355
345
343
342
359
344
342
347
360
345
341
349
356
344
337
352
352
344
336
353
348
341
337
356
344
340
338
358
345
340
340
356
342
338
345
355
341
335
347
349
340
334
351
349
341
334
354
344
339
335
355
342
340
339
355
342
339
342
354
341
335
347
352
340
333
349
347
338
332
353
345
339
334
354
341
338
337
357
341
337
339
355
340
334
341
350
339
334
346
346
337
332
350
344
336
332
351
340
336
333
353
337
331
331
348
335
332
337
348
334
329
338
341
334
328
345
341
334
332
353
344
338
333
353
341
338
336
354
338
337
341
351
332
317
313
306
284
271
297
319
336
350
381
377
366
351
365
348
341
337
357
341
339
340
357
342
336
340
348
335
330
343
345
336
328
346
342
335
329
347
335
329
327
348
334
330
330
349
330
325
330
342
330
325
337
345
334
327
344
343
339
334
352
347
344
340
359
346
342
342
360
344
341
344
359
344
338
347
354
342
337
352
350
341
334
353
347
342
335
356
344
339
338
358
342
340
343
357
342
338
344
354
341
336
350
350
339
333
350
345
336
332
353
343
338
336
358
343
339
337
355
342
338
341
353
339
335
344
349
338
332
349
345
337
331
351
342
337
334
354
341
336
336
355
340
336
339
354
339
335
343
350
338
334
349
348
338
331
349
343
337
333
354
341
331
328
350
336
334
333
350
336
331
336
343
333
331
343
345
334
329
350
346
338
333
353
343
338
334
354
342
338
337
355
337
326
316
317
291
276
288
311
325
343
377
382
371
357
369
356
344
336
356
344
341
337
357
343
339
337
352
338
334
341
349
338
332
345
348
338
330
348
340
331
325
346
336
333
332
349
333
327
327
344
332
326
333
348
335
329
341
347
338
334
350
348
343
338
357
348
343
340
361
346
342
341
361
346
343
344
357
343
338
348
354
342
337
353
351
341
334
353
347
341
336
355
343
339
338
358
342
339
342
357
342
336
343
353
341
335
348
350
343
332
351
346
338
331
352
344
338
335
355
343
338
338
355
342
336
340
354
339
334
344
348
337
330
346
346
337
330
349
342
336
331
352
341
337
335
353
339
336
339
354
339
334
341
350
338
332
346
347
337
332
350
344
335
326
347
337
328
328
349
334
331
332
347
332
331
338
349
335
329
344
349
339
333
349
345
337
331
352
343
337
335
354
339
330
319
324
297
282
278
304
312
334
364
383
375
363
369
361
348
338
354
346
339
336
356
345
340
336
353
337
334
336
353
338
333
341
349
336
331
345
344
331
326
344
339
331
325
346
335
326
322
344
331
328
326
349
337
328
337
349
338
335
346
350
343
338
355
352
343
338
358
349
341
337
357
347
339
340
359
345
340
343
356
343
337
347
355
342
336
349
350
340
334
353
348
341
335
356
345
339
337
357
344
339
340
358
343
336
345
355
340
334
348
349
339
333
351
347
337
332
352
344
337
333
353
341
336
337
355
342
336
341
355
340
337
345
350
338
331
347
347
340
332
350
343
336
331
353
342
336
334
354
341
336
338
354
341
335
342
351
341
331
345
347
337
326
343
339
331
325
351
338
331
328
348
331
329
333
350
334
332
339
355
340
333
343
349
338
331
349
345
337
331
351
342
331
321
329
304
287
276
298
302
322
350
383
374
366
366
367
347
337
350
349
339
333
352
345
337
333
349
339
334
333
352
339
334
335
352
337
332
339
349
332
326
340
343
332
326
343
338
327
320
341
333
327
323
346
338
333
332
350
337
336
340
355
341
338
350
356
343
335
350
351
341
335
355
349
341
335
356
346
340
339
359
346
340
341
357
341
338
346
354
342
336
350
351
340
333
352
347
338
334
353
344
339
336
355
342
337
339
355
341
337
343
354
340
336
347
351
339
334
349
346
338
333
352
345
337
334
354
342
338
336
354
341
337
340
354
342
336
342
351
338
331
346
348
339
331
349
343
337
333
353
343
337
336
356
340
335
337
354
339
335
340
352
338
330
339
343
333
326
343
340
332
325
345
334
328
328
350
337
332
331
354
343
336
339
354
343
336
346
351
338
331
348
347
335
323
333
314
295
280
292
294
311
334
375
373
371
367
376
354
344
348
355
342
334
348
350
340
333
348
341
334
329
351
341
335
331
351
340
334
335
353
336
329
334
347
333
328
339
345
331
320
337
337
328
322
342
337
333
330
351
339
335
336
356
343
342
345
360
345
340
348
356
343
337
352
352
342
335
353
348
342
336
356
347
341
339
358
344
339
341
358
344
339
345
356
343
336
349
352
340
334
350
347
339
335
354
345
339
336
357
345
339
338
358
342
339
343
357
341
334
344
350
341
333
348
348
338
331
351
345
338
333
353
343
336
336
355
341
336
338
355
340
335
341
352
338
331
345
348
337
332
349
345
336
331
351
342
336
334
352
339
335
335
353
340
334
336
347
334
327
340
346
333
325
344
341
329
327
348
340
335
330
352
343
338
337
355
341
338
339
355
341
337
345
352
338
327
333
323
299
281
290
287
297
318
364
370
371
366
378
356
346
343
356
339
337
343
353
339
335
346
347
335
327
343
342
334
329
348
339
334
329
350
337
331
329
340
333
329
333
347
333
325
331
331
328
322
336
338
332
326
345
339
334
332
354
343
338
339
360
347
342
342
358
345
340
346
357
343
337
349
352
343
336
352
348
340
336
355
345
340
337
357
343
339
338
357
342
339
343
357
342
337
346
351
339
333
347
347
339
333
352
345
339
336
357
344
339
337
356
341
338
339
355
341
336
341
350
339
334
347
348
338
334
351
344
337
332
353
343
338
334
353
339
337
337
354
339
336
340
352
338
334
344
349
338
331
347
345
336
330
351
341
336
332
352
340
335
331
349
335
331
333
348
335
330
338
345
330
326
341
342
333
326
346
345
338
332
352
341
336
334
354
339
335
336
353
339
333
332
333
306
289
290
287
287
304
347
366
369
366
381
364
351
340
359
343
339
338
357
341
337
341
352
335
330
341
350
337
329
345
345
336
329
349
341
335
325
346
336
331
329
350
334
331
327
346
331
326
334
346
334
330
344
344
335
331
351
346
339
336
357
348
342
340
359
346
342
341
360
345
341
345
358
343
338
347
353
344
337
352
349
342
335
355
346
341
336
357
344
340
338
357
342
340
341
357
342
338
345
354
341
334
348
349
339
333
352
345
339
336
354
343
338
336
355
340
338
337
354
339
336
342
354
340
334
345
349
339
332
350
347
339
332
352
343
338
334
354
342
338
336
354
339
336
340
354
340
335
343
350
337
332
345
346
339
333
351
343
337
332
350
336
332
331
351
337
334
334
350
334
329
336
348
335
330
343
348
339
333
349
345
338
332
352
342
337
332
353
340
336
332
342
315
299
291
295
284
297
330
361
366
366
380
371
354
341
357
347
339
335
357
344
339
337
358
339
335
336
352
338
334
341
350
337
332
346
345
336
327
343
338
332
326
346
336
332
326
343
329
327
329
346
332
332
337
350
336
333
344
351
340
334
352
351
344
337
356
347
342
337
359
345
341
339
359
344
341
343
357
344
339
346
353
339
336
349
350
341
335
354
346
342
336
356
345
339
336
356
343
341
340
357
342
338
343
354
342
335
347
350
339
332
349
345
339
333
353
343
338
336
355
342
339
338
355
341
337
340
353
339
337
344
350
339
333
348
346
338
332
351
342
337
333
353
341
337
334
353
340
337
338
353
338
335
341
350
337
330
345
347
336
331
346
339
333
327
348
337
333
329
349
334
329
330
351
336
334
337
350
340
336
346
351
339
333
348
346
338
332
352
343
338
331
347
322
306
292
302
282
288
313
354
359
367
376
379
360
346
354
352
342
334
353
346
340
335
355
341
333
331
352
339
335
335
352
336
333
338
350
338
330
338
340
331
324
341
337
329
323
340
331
326
322
344
331
331
333
350
334
332
337
355
340
337
346
356
345
337
352
350
340
334
354
347
340
335
356
345
342
339
358
344
341
340
357
341
339
344
355
343
337
349
350
340
333
351
347
340
334
353
344
341
336
355
343
339
338
356
342
337
341
355
341
337
346
352
340
333
348
346
338
333
352
345
338
334
354
341
338
336
356
341
338
340
355
340
336
344
353
339
334
347
348
339
332
350
345
337
332
352
341
338
335
355
337
335
337
355
339
336
340
352
340
333
342
343
332
327
344
342
333
327
346
337
331
323
348
336
334
330
349
337
338
340
354
340
336
344
352
339
333
347
347
339
330
345
332
314
296
305
284
282
297
343
353
365
372
387
364
352
349
357
343
336
347
349
339
333
349
347
336
328
350
340
335
329
350
339
336
334
352
337
334
333
345
332
328
336
343
333
326
339
335
327
321
342
334
330
329
350
337
333
331
354
341
338
340
359
346
341
347
356
344
338
350
352
342
337
354
348
342
336
355
344
341
337
357
343
341
340
357
344
340
343
356
342
336
346
351
341
333
353
347
339
334
355
348
342
336
356
344
340
338
357
341
338
341
356
340
336
344
352
339
333
347
349
339
332
351
345
339
333
354
342
338
334
355
341
338
338
355
340
337
341
352
339
334
344
347
337
331
348
344
337
332
351
342
337
333
352
340
337
335
355
339
336
339
351
333
328
338
344
332
328
343
341
333
325
343
339
336
329
349
338
338
337
355
341
337
338
354
340
337
343
354
340
334
344
341
320
300
305
288
278
283
326
343
358
366
388
369
357
350
362
344
339
343
356
342
339
349
352
338
330
347
345
336
330
350
341
336
332
353
341
336
333
349
334
330
333
348
334
330
335
341
328
324
338
339
329
327
347
341
334
329
352
343
340
335
357
346
342
342
360
345
340
345
356
342
337
350
353
343
334
351
348
341
336
354
346
342
336
357
345
341
341
358
344
340
344
357
342
338
347
353
341
334
349
348
339
335
353
345
340
333
353
341
338
335
354
340
337
339
355
340
337
341
352
340
334
346
348
337
330
349
344
336
332
352
343
337
332
352
339
336
337
354
338
334
338
352
339
333
344
349
338
331
347
345
337
330
350
342
336
333
354
341
336
334
353
335
331
333
348
334
330
339
346
334
327
338
341
333
326
345
340
336
332
352
343
338
335
354
341
338
337
355
341
338
340
347
326
309
307
298
278
275
311
333
349
361
387
375
363
349
364
347
341
338
357
342
339
342
357
342
333
340
348
337
331
345
345
336
329
348
339
334
330
347
333
330
329
349
333
332
332
346
329
324
331
341
329
326
343
345
334
327
346
345
340
333
353
347
344
339
359
346
342
340
358
344
341
344
357
343
338
348
352
341
336
352
349
341
334
353
346
342
337
357
344
341
338
356
341
339
342
357
342
336
345
353
342
335
349
349
340
333
351
345
339
333
353
342
338
336
354
340
338
337
355
339
336
341
352
340
336
347
349
340
332
349
346
338
333
352
344
339
335
354
340
338
336
355
341
337
339
352
340
335
344
349
338
331
347
345
337
331
351
344
338
333
353
340
332
330
350
334
332
334
350
335
331
336
345
333
329
342
345
335
332
352
346
337
331
351
341
337
334
354
340
336
336
352
332
317
309
310
283
274
295
323
339
353
379
378
364
351
364
350
341
336
354
342
339
338
356
341
336
336
351
337
334
342
350
338
330
345
346
336
330
346
337
331
325
347
336
324
329
347
331
326
327
344
329
327
336
349
336
329
343
346
340
333
351
348
344
338
358
349
343
338
359
345
341
342
362
345
342
345
358
344
339
348
353
343
336
350
348
341
336
353
345
340
336
356
344
340
337
356
343
341
342
357
342
338
345
353
341
336
348
349
340
334
352
345
337
333
353
342
337
334
354
339
338
337
355
340
336
341
353
339
333
345
348
337
332
348
344
338
332
352
343
338
333
353
342
335
335
354
339
336
337
353
339
335
344
350
337
332
347
347
339
332
350
342
332
326
348
337
332
331
350
337
334
334
347
335
332
338
348
334
332
347
349
339
332
349
345
339
332
352
341
337
335
353
336
325
312
317
290
278
284
316
321
345
372
384
370
355
363
355
343
334
353
345
339
335
356
343
338
333
352
339
335
337
352
338
333
341
349
337
330
344
341
330
326
346
339
332
326
347
333
327
323
344
331
327
329
349
335
332
337
348
338
336
347
350
343
338
354
349
341
336
355
346
341
337
359
345
340
339
359
344
341
343
357
342
337
347
352
341
334
350
350
341
336
353
348
340
335
355
342
339
337
357
342
339
339
356
342
338
344
352
340
334
347
349
339
332
351
345
339
332
353
342
338
336
355
339
336
336
355
340
337
342
353
339
333
344
350
338
332
348
345
338
332
351
343
337
332
352
339
337
335
355
340
336
339
354
338
336
342
350
338
331
346
345
335
324
343
337
331
327
348
336
332
331
346
332
332
333
349
335
332
342
353
340
334
346
348
338
333
349
345
338
332
353
339
329
316
324
296
282
277
309
316
339
362
387
374
364
365
363
346
337
351
348
340
334
353
345
339
331
349
337
334
334
353
338
335
336
352
338
334
341
348
333
327
340
341
333
326
345
338
327
321
342
332
327
326
349
336
333
333
351
338
338
342
352
342
338
349
352
343
336
353
350
342
335
355
348
342
338
358
345
342
341
359
343
340
343
357
341
337
346
355
342
337
351
349
340
334
353
345
341
336
355
345
341
337
355
341
338
339
358
341
337
345
355
342
335
347
350
339
332
349
345
339
333
353
343
338
335
355
342
339
337
355
340
336
340
353
339
336
345
349
339
333
349
344
336
331
350
343
336
331
353
340
337
335
354
338
335
338
353
339
335
342
350
337
327
340
341
332
326
344
338
332
328
348
333
331
331
351
337
333
336
357
340
336
341
353
339
333
345
348
338
332
349
345
332
319
326
304
286
273
298
304
326
348
383
374
368
362
368
349
340
345
351
341
335
348
348
340
334
349
340
335
329
350
338
335
333
353
338
335
337
350
334
329
334
344
332
326
342
341
329
321
339
335
328
323
345
338
335
332
351
339
338
339
356
341
341
347
360
344
336
348
354
343
337
353
350
342
335
354
345
341
336
357
344
342
340
359
343
341
343
358
343
338
346
353
341
334
348
348
340
334
353
346
339
334
354
342
338
337
356
342
338
338
356
341
338
341
352
338
334
346
349
338
331
349
346
338
332
352
343
338
335
355
341
337
336
355
340
337
340
353
339
334
345
350
339
332
347
347
338
332
350
343
337
334
353
341
337
336
354
341
337
339
355
341
334
338
347
334
328
341
341
334
328
345
337
331
328
348
337
334
332
355
342
338
337
353
340
335
340
353
340
334
344
349
336
323
328
313
294
276
293
293
311
334
375
373
371
363
374
353
343
344
356
341
339
348
354
342
335
349
345
336
330
349
342
334
329
351
338
334
333
353
336
330
332
348
334
330
335
346
331
322
334
338
329
323
341
340
335
329
349
339
336
335
355
342
342
342
361
346
342
344
359
344
339
349
354
342
336
352
349
342
335
354
346
341
336
357
345
341
339
358
342
337
341
357
342
337
344
353
339
334
347
349
339
333
351
345
340
334
354
343
338
335
357
342
339
339
355
342
339
343
353
338
336
345
349
338
332
349
345
339
334
353
343
338
335
354
341
338
337
356
340
336
338
354
339
335
344
351
339
333
348
347
337
331
350
342
337
332
352
340
337
334
354
341
335
334
349
336
332
337
347
334
329
342
342
330
326
347
342
333
328
352
345
340
334
354
341
338
337
356
340
337
340
353
338
329
332
325
300
282
290
290
302
321
366
373
373
365
379
357
347
342
358
342
340
343
356
342
337
344
349
334
329
344
344
335
329
349
343
334
331
351
339
331
327
349
335
332
331
347
333
325
330
341
328
323
336
341
335
327
343
340
334
332
352
342
338
337
359
346
341
341
360
345
341
344
357
343
337
347
354
343
335
350
349
341
335
352
344
339
335
356
346
339
336
356
341
338
341
355
341
337
344
353
341
335
347
348
341
334
353
346
339
334
354
343
338
335
355
342
338
339
357
341
337
341
354
339
335
346
351
339
333
349
347
339
333
352
342
337
333
354
341
339
338
355
339
337
339
352
338
334
343
349
338
331
347
346
337
330
350
343
337
332
352
340
336
331
348
334
332
333
350
335
332
337
346
331
325
341
343
332
327
345
344
339
332
354
343
339
334
355
340
338
338
354
340
335
331
334
307
290
289
291
293
309
351
368
371
366
379
364
351
341
358
344
340
338
358
343
340
341
355
337
333
341
350
336
330
344
344
336
332
350
342
334
327
347
335
332
329
349
334
331
329
345
330
326
333
343
334
331
342
344
334
330
349
346
339
337
358
347
342
338
358
345
341
340
359
343
341
345
358
343
339
347
353
342
335
350
348
341
334
353
344
339
336
357
344
340
338
358
343
340
341
356
341
337
345
353
340
335
348
349
340
334
351
345
338
333
354
342
338
337
356
342
348
340
357
341
339
343
354
340
335
347
349
340
333
351
346
339
333
353
343
338
334
354
340
336
335
355
340
337
341
354
339
335
343
349
338
332
347
346
339
331
350
342
337
330
348
335
332
329
349
335
332
333
349
333
328
336
348
336
329
342
346
341
333
350
345
338
331
352
342
337
333
354
339
335
333
342
315
297
290
292
283
297
334
363
368
368
380
369
353
340
358
345
339
336
356
343
339
338
355
337
332
336
351
337
332
341
347
336
329
344
343
335
326
343
336
330
325
346
335
331
325
343
330
327
329
346
333
332
339
348
334
330
346
349
340
333
354
350
342
337
358
347
341
337
359
345
342
341
359
343
341
345
357
344
337
349
352
343
335
351
350
341
334
354
346
341
336
356
343
339
337
356
341
340
342
356
341
338
344
352
339
332
347
348
338
332
352
346
339
334
354
344
338
335
355
340
337
339
355
341
336
342
353
339
333
346
348
337
331
348
346
338
333
352
341
337
334
355
341
337
336
354
339
337
341
353
339
334
343
349
338
331
348
345
338
330
347
338
331
328
349
336
331
331
350
335
329
333
349
336
332
339
346
337
334
346
346
337
331
350
344
338
333
353
341
337
332
345
321
305
292
298
279
290
318
353
361
366
379
375
358
343
356
349
339
333
353
344
339
336
357
340
333
332
352
340
333
338
352
335
331
341
348
337
328
339
338
332
325
345
337
331
324
342
330
327
326
345
329
330
334
349
334
331
342
353
341
332
350
354
342
337
355
350
343
336
357
348
343
340
359
344
340
342
358
344
340
345
358
343
338
347
351
341
335
352
349
341
335
354
344
338
335
356
343
341
339
359
342
340
342
356
342
337
346
354
340
333
347
347
340
334
353
345
338
333
354
342
338
335
355
340
338
340
357
335
337
342
352
339
337
346
347
337
332
350
345
338
332
352
341
336
332
355
340
337
336
354
339
336
341
353
339
333
343
348
337
332
346
340
332
327
347
338
333
329
348
336
328
328
349
336
334
335
350
336
335
343
351
339
332
346
346
338
331
350
342
336
329
347
327
310
295
304
281
281
301
343
352
365
377
384
362
349
355
354
341
334
352
346
339
334
354
345
336
331
351
337
334
333
352
337
335
339
352
336
332
337
341
330
324
341
339
331
323
342
332
328
322
343
331
330
330
350
335
332
335
353
342
336
344
357
345
338
351
351
342
335
353
349
342
337
358
346
341
339
359
344
340
340
358
344
340
345
356
342
336
348
352
341
334
352
348
342
335
356
345
340
335
356
343
340
340
357
343
338
341
355
343
337
345
352
341
333
349
348
340
333
352
345
340
334
355
344
338
336
356
341
337
337
354
340
335
342
351
340
335
347
348
340
331
349
343
337
332
353
343
338
336
355
340
337
336
355
340
336
342
354
340
335
345
345
333
326
343
339
332
326
346
337
333
325
348
336
334
333
351
338
337
341
353
339
334
343
351
338
331
348
346
336
330
347
334
316
299
307
284
277
287
331
343
360
370
388
366
354
353
359
343
335
349
350
340
334
352
346
336
328
349
339
335
331
351
338
334
335
353
336
333
335
346
331
327
337
343
332
326
340
335
327
322
342
334
329
327
351
337
334
331
353
341
338
340
357
346
341
347
355
342
337
351
351
342
335
353
345
340
335
357
345
340
337
357
345
341
341
357
343
339
345
355
342
335
347
350
339
333
351
347
339
333
353
343
339
335
355
342
338
337
356
341
339
342
356
340
335
345
350
339
333
349
347
339
331
351
343
337
332
353
341
337
336
355
340
336
338
353
339
334
341
350
339
334
345
345
337
331
350
346
338
333
354
341
337
334
354
340
337
335
353
338
336
341
351
334
328
340
344
334
327
344
339
332
326
344
334
334
330
351
338
337
338
356
341
337
340
353
339
335
344
350
338
332
346
341
324
306
311
291
277
277
318
331
350
364
389
372
361
354
364
345
339
345
355
342
336
350
350
341
329
347
342
335
329
351
342
336
332
353
338
335
335
349
334
330
334
347
334
329
339
341
327
321
339
337
330
326
348
340
335
330
351
342
340
337
357
345
343
344
358
344
340
349
356
345
337
352
352
343
336
354
348
341
337
356
345
340
338
358
344
340
341
357
342
338
344
356
341
334
347
350
340
334
351
345
339
333
354
343
340
336
356
342
338
338
357
341
336
341
355
341
335
345
350
339
332
349
347
337
332
352
344
338
333
353
340
337
335
355
340
337
340
355
340
337
343
351
339
332
346
347
338
331
349
343
337
332
353
341
337
333
354
340
338
338
355
338
329
334
347
334
328
340
343
333
325
342
340
334
328
348
338
335
335
356
342
337
336
355
339
336
339
354
340
335
346
348
330
312
314
301
281
273
305
321
340
354
385
375
364
353
367
348
341
341
355
342
339
345
353
340
332
343
344
335
328
347
341
335
330
351
339
334
331
348
331
329
330
348
334
331
336
344
329
322
334
338
329
322
343
342
334
329
348
341
339
336
354
344
344
343
361
345
342
345
360
344
339
348
354
342
335
351
350
341
336
355
348
342
337
357
345
341
339
359
343
341
342
357
342
338
344
353
341
334
347
348
340
333
350
345
339
334
354
343
338
334
356
341
338
337
355
340
336
339
351
338
336
344
349
338
332
349
346
337
330
352
343
338
333
354
341
338
336
354
339
335
339
353
339
335
344
351
337
332
346
347
341
331
350
344
338
332
352
342
337
334
353
337
331
332
349
334
333
338
347
333
331
341
341
333
328
345
340
332
332
354
343
338
334
354
341
337
337
355
341
337
341
353
335
321
318
311
288
272
292
311
331
347
381
378
368
355
368
349
343
338
357
342
339
341
358
343
337
341
348
337
331
345
345
337
330
348
341
335
330
351
335
329
328
348
334
331
332
348
332
325
331
342
330
324
338
344
334
327
345
342
338
333
352
343
342
339
360
346
342
341
360
346
343
345
360
345
336
348
354
342
335
351
350
341
334
354
347
340
335
355
344
341
338
357
343
339
340
356
342
338
344
353
340
335
349
348
340
333
351
345
337
332
354
343
338
335
355
341
337
338
355
340
338